Time,Length,Pressure,Force
2,0.0,0.801,0.0
3214,0.1,0.801,0.0
3231,0.3,0.801,0.4
3248,0.5,0.802,0.9
3264,0.7,0.802,1.3
3296,0.8,0.801,1.6
3316,0.9,0.801,1.9
3355,1.0,0.801,2.2
3375,1.1,0.801,2.3
3415,1.2,0.801,2.5
3425,1.3,0.802,2.7
3451,1.4,0.801,2.8
3496,1.5,0.801,3.3
3517,1.7,0.802,3.6
3534,1.8,0.801,3.9
3554,2.0,0.802,4.2
3566,2.1,0.802,4.5
3592,2.3,0.801,4.9
3615,2.4,0.802,5.3
3651,2.5,0.802,5.7
3682,2.6,0.802,5.9
3734,2.7,0.802,6.2
3775,2.8,0.802,6.7
4772,2.9,0.802,6.6
4790,3.0,0.801,7.2
4812,3.1,0.802,7.6
4827,3.2,0.801,8.0
4852,3.3,0.802,8.3
4873,3.4,0.801,8.7
4889,3.5,0.802,9.0
4906,3.6,0.801,9.2
4932,3.7,0.801,9.6
4972,3.8,0.801,10.2
4979,3.9,0.802,10.6
5011,4.0,0.801,10.9
5033,4.1,0.802,11.4
5053,4.2,0.802,11.8
5074,4.3,0.802,12.1
5094,4.4,0.803,12.5
5111,4.5,0.802,12.8
5118,4.6,0.803,13.2
5171,4.7,0.802,13.9
5179,4.8,0.804,14.2
5211,4.9,0.803,14.6
5253,5.0,0.802,15.2
6327,5.1,0.801,14.4
6351,5.2,0.802,14.6
6368,5.3,0.802,15.6
6388,5.4,0.801,16.6
6405,5.5,0.802,17.3
6429,5.7,0.802,18.1
6445,5.8,0.803,18.7
6464,5.9,0.803,19.4
6476,6.0,0.803,20.0
6503,6.1,0.803,20.5
6531,6.2,0.803,20.8
6538,6.3,0.804,21.2
6568,6.4,0.803,21.7
6589,6.5,0.804,22.3
6609,6.6,0.803,22.8
6627,6.7,0.803,23.5
6647,6.9,0.803,24.3
6660,7.0,0.804,25.2
6686,7.2,0.804,26.1
6708,7.3,0.804,27.0
6725,7.4,0.806,27.8
7703,7.5,0.802,27.3
7745,7.6,0.803,28.3
7768,7.7,0.804,29.0
7805,7.8,0.804,30.2
7826,7.9,0.804,31.0
7846,8.0,0.803,31.8
7867,8.1,0.804,32.5
7884,8.2,0.806,33.1
7908,8.3,0.806,33.8
7922,8.4,0.806,34.5
7949,8.5,0.806,35.2
7965,8.6,0.807,35.9
7986,8.7,0.806,36.5
8007,8.8,0.807,37.2
8013,8.9,0.806,37.9
8046,9.0,0.808,38.6
8062,9.1,0.808,39.3
8080,9.2,0.808,40.0
8105,9.4,0.808,40.8
8122,9.5,0.809,41.7
8166,9.6,0.807,43.0
8185,9.7,0.808,43.6
8206,9.8,0.809,44.3
8225,10.0,0.809,45.0
9377,10.1,0.808,45.1
9391,10.2,0.808,45.7
9423,10.3,0.809,47.0
9443,10.4,0.809,47.9
9464,10.5,0.809,48.8
9484,10.6,0.811,49.6
9510,10.7,0.809,50.9
9543,10.8,0.811,51.5
9575,10.9,0.811,52.7
9591,11.0,0.809,53.3
9624,11.1,0.811,54.1
9643,11.2,0.812,54.9
9665,11.4,0.811,55.9
9682,11.5,0.812,57.0
9702,11.6,0.813,58.0
9714,11.8,0.813,59.2
9734,11.9,0.814,60.2
9760,12.0,0.814,61.3
9801,12.1,0.814,62.6
9823,12.2,0.814,63.0
9839,12.3,0.814,63.7
9878,12.4,0.814,65.1
10832,12.5,0.812,64.1
10878,12.7,0.813,65.8
10889,12.8,0.814,66.9
10922,12.9,0.813,68.0
10940,13.0,0.815,69.2
10959,13.2,0.815,70.4
10979,13.3,0.817,71.6
10997,13.4,0.815,72.9
11021,13.6,0.818,74.2
11042,13.7,0.817,75.5
11060,13.8,0.818,76.7
11076,13.9,0.818,77.7
11101,14.1,0.819,78.7
11123,14.2,0.819,79.8
11159,14.3,0.82,81.6
11176,14.4,0.819,82.3
11201,14.5,0.82,83.0
11221,14.6,0.82,83.8
11242,14.7,0.822,84.7
12256,14.8,0.819,84.4
12273,14.9,0.82,84.5
12299,15.0,0.82,85.6
12340,15.1,0.819,87.7
12360,15.2,0.82,88.6
12394,15.3,0.823,89.8
12437,15.4,0.823,90.7
12470,15.5,0.823,91.6
12519,15.6,0.823,92.6
12536,15.7,0.823,93.2
12572,15.8,0.825,94.4
12589,15.9,0.823,95.0
12608,16.0,0.824,95.7
12637,16.1,0.824,96.6
12656,16.2,0.826,97.6
12678,16.3,0.826,98.8
12685,16.4,0.826,100.1
12711,16.6,0.828,101.4
12737,16.7,0.828,102.8
12757,16.8,0.828,104.1
12778,16.9,0.829,105.1
12811,17.0,0.829,106.5
12852,17.1,0.83,107.4
12876,17.2,0.83,108.1
14027,17.3,0.828,107.2
14053,17.4,0.828,107.5
14069,17.5,0.829,108.9
14097,17.6,0.829,110.3
14116,17.8,0.83,111.8
14127,17.9,0.83,113.4
14153,18.1,0.833,115.2
14175,18.2,0.833,116.9
14193,18.4,0.834,118.6
14212,18.5,0.834,120.3
14236,18.6,0.836,121.8
14254,18.7,0.835,123.1
14276,18.8,0.835,124.2
14293,18.9,0.836,125.0
14334,19.0,0.835,126.0
14371,19.1,0.836,126.9
14394,19.2,0.836,127.6
14414,19.3,0.836,128.5
14427,19.5,0.837,129.9
14454,19.6,0.836,131.4
14692,19.7,0.833,131.4
15632,19.8,0.833,131.1
15653,19.9,0.831,132.4
15686,20.0,0.833,134.2
15711,20.1,0.834,135.0
15744,20.2,0.834,136.6
15762,20.3,0.835,137.7
15778,20.4,0.835,138.7
15813,20.5,0.836,139.8
15833,20.6,0.835,140.8
15849,20.7,0.835,141.9
15866,20.8,0.835,143.0
15883,20.9,0.836,144.0
15902,21.0,0.837,145.0
15930,21.1,0.837,145.9
15950,21.2,0.837,146.9
15966,21.3,0.837,148.0
15981,21.5,0.837,149.2
16007,21.7,0.839,150.7
16031,21.9,0.837,152.6
16050,22.0,0.837,154.9
16070,22.1,0.836,156.7
16826,22.0,0.831,153.7
17202,22.1,0.83,152.7
17215,22.2,0.831,153.7
17247,22.3,0.833,155.6
17263,22.5,0.833,157.5
17279,22.6,0.835,159.0
17305,22.7,0.835,160.4
17317,22.8,0.835,161.8
17349,22.9,0.836,163.3
17369,23.0,0.835,164.6
17383,23.1,0.836,165.9
17407,23.2,0.837,167.0
17424,23.3,0.836,168.2
17446,23.5,0.837,169.5
17465,23.6,0.837,170.9
17488,23.8,0.837,172.6
17499,24.0,0.837,174.4
17532,24.2,0.839,176.5
17550,24.3,0.839,178.7
17570,24.4,0.836,180.5
17624,24.5,0.835,180.3
17645,24.6,0.836,180.8
18704,24.7,0.831,179.8
18744,24.8,0.831,181.3
18764,24.9,0.834,182.6
18771,25.0,0.834,183.7
18805,25.1,0.834,184.9
18827,25.2,0.835,186.1
18864,25.3,0.836,188.5
18884,25.5,0.836,189.8
18902,25.6,0.837,191.1
18924,25.7,0.837,192.5
18941,25.8,0.836,193.7
18961,25.9,0.836,194.9
18987,26.0,0.836,196.1
19007,26.1,0.837,197.3
19023,26.2,0.837,198.7
19044,26.4,0.837,200.2
19064,26.6,0.839,202.1
19085,26.7,0.839,204.2
19106,26.8,0.837,206.1
19113,26.9,0.837,207.0
19164,27.0,0.836,207.9
19201,27.1,0.835,208.5
20204,27.2,0.833,206.5
20219,27.3,0.834,208.1
20244,27.4,0.834,209.5
20257,27.5,0.835,211.0
20273,27.6,0.835,212.3
20299,27.7,0.835,213.5
20322,27.8,0.837,214.9
20342,27.9,0.836,216.3
20363,28.0,0.837,217.5
20384,28.1,0.837,218.8
20404,28.2,0.837,220.2
20425,28.3,0.836,221.5
20431,28.4,0.836,222.6
20482,28.5,0.837,224.3
20492,28.6,0.837,225.3
20524,28.7,0.837,226.4
20540,28.9,0.837,227.7
20564,29.0,0.837,229.4
20584,29.1,0.839,231.4
20605,29.2,0.836,232.5
20676,29.3,0.836,232.4
20691,29.4,0.835,233.2
20727,29.5,0.836,235.2
23136,29.4,0.828,230.5
23156,29.3,0.826,229.2
23170,29.2,0.825,226.3
23192,29.1,0.824,223.8
23217,29.0,0.823,221.5
23287,28.9,0.824,220.1
23308,28.8,0.82,219.4
23333,28.6,0.819,217.2
23356,28.5,0.817,214.9
23373,28.3,0.815,212.6
23390,28.2,0.814,210.4
23418,28.0,0.814,208.3
23435,27.9,0.812,206.3
23456,27.7,0.809,204.2
23475,27.6,0.808,202.0
23496,27.5,0.808,199.7
23517,27.3,0.807,197.9
23558,27.2,0.806,195.1
23577,27.1,0.806,194.1
23610,27.0,0.804,192.2
23636,26.9,0.803,191.3
23657,26.8,0.803,190.4
23677,26.7,0.801,188.9
23736,26.6,0.801,186.8
24914,26.5,0.801,185.9
24975,26.4,0.8,184.8
25030,26.3,0.8,183.5
25045,26.2,0.798,182.6
25064,26.1,0.798,181.6
25093,26.0,0.797,180.4
25110,25.9,0.796,179.1
25127,25.8,0.796,177.8
25152,25.7,0.796,176.6
25187,25.6,0.796,174.8
25213,25.5,0.796,174.1
25233,25.4,0.796,173.3
25267,25.3,0.796,171.8
25293,25.2,0.797,171.0
25312,25.1,0.796,170.1
25330,25.0,0.795,169.3
25344,24.8,0.796,168.2
25364,24.6,0.793,166.5
25393,24.4,0.793,164.2
25413,24.3,0.793,161.8
25434,24.2,0.795,160.1
26607,24.1,0.8,161.0
26628,23.9,0.798,160.2
26635,23.7,0.796,158.0
26668,23.6,0.796,156.2
26685,23.5,0.796,154.6
26711,23.4,0.796,153.2
26731,23.3,0.795,151.9
26749,23.1,0.795,150.7
26769,23.0,0.796,149.5
26790,22.9,0.796,148.4
26810,22.8,0.797,147.3
26841,22.7,0.796,145.6
26867,22.6,0.796,144.8
26890,22.5,0.797,144.2
26930,22.4,0.797,142.9
26970,22.3,0.797,142.2
26991,22.2,0.798,141.7
27011,22.1,0.797,140.9
27030,22.0,0.796,139.8
28247,21.9,0.801,139.4
28308,21.8,0.8,137.9
28317,21.7,0.798,137.6
28343,21.6,0.798,136.7
28381,21.5,0.797,134.9
28407,21.4,0.796,134.0
28428,21.3,0.796,133.0
28446,21.2,0.796,132.2
28466,21.1,0.796,131.3
28489,21.0,0.796,130.3
28506,20.9,0.796,129.3
28526,20.8,0.796,128.1
28532,20.7,0.796,127.0
28565,20.6,0.796,126.1
28585,20.5,0.795,125.3
28601,20.4,0.796,124.4
28618,20.3,0.796,123.5
28644,20.2,0.796,122.4
28666,20.1,0.796,121.2
28686,19.9,0.795,120.0
28707,19.7,0.795,118.6
28727,19.5,0.796,116.9
28748,19.4,0.796,114.7
29955,19.3,0.801,114.7
29985,19.2,0.798,114.4
30005,19.0,0.797,112.8
30025,18.9,0.797,111.0
30046,18.8,0.796,109.6
30062,18.7,0.797,108.3
30076,18.5,0.797,107.1
30101,18.4,0.796,105.9
30123,18.3,0.796,104.7
30136,18.2,0.797,103.6
30164,18.1,0.796,102.6
30185,18.0,0.796,101.6
30206,17.9,0.796,100.6
30223,17.8,0.796,99.6
30243,17.7,0.796,98.7
30263,17.6,0.796,97.9
30283,17.5,0.796,96.9
30293,17.3,0.795,95.9
30319,17.2,0.795,94.8
30343,17.1,0.795,93.6
31561,17.0,0.8,93.7
31582,16.9,0.8,92.8
31593,16.8,0.8,91.9
31623,16.6,0.797,90.5
31641,16.5,0.797,88.9
31659,16.4,0.797,87.7
31678,16.3,0.797,86.7
31696,16.2,0.797,85.9
31721,16.1,0.798,85.1
31762,16.0,0.797,83.6
31782,15.9,0.796,82.9
31796,15.8,0.797,82.2
31835,15.7,0.797,81.0
31854,15.6,0.797,80.4
31876,15.5,0.797,79.6
31899,15.4,0.796,78.8
31916,15.3,0.797,78.0
31962,15.1,0.797,76.4
31979,15.0,0.796,75.6
32000,14.9,0.797,74.6
33076,14.8,0.8,74.1
33097,14.6,0.8,73.9
33118,14.4,0.798,72.3
33138,14.3,0.798,70.2
33157,14.2,0.797,68.7
33199,14.1,0.797,67.3
33219,14.0,0.797,66.4
33237,13.9,0.797,65.7
33255,13.8,0.797,64.9
33273,13.7,0.797,64.2
33298,13.6,0.796,63.3
33318,13.5,0.797,62.6
33346,13.4,0.797,61.2
33370,13.3,0.797,60.5
33396,13.2,0.798,60.0
33429,13.1,0.797,58.7
33454,13.0,0.797,57.9
33478,12.9,0.798,57.1
33498,12.8,0.797,56.3
33519,12.6,0.797,55.4
33548,12.5,0.797,53.5
34576,12.4,0.8,54.1
34596,12.3,0.798,53.5
34614,12.2,0.8,52.4
34632,12.1,0.798,51.2
34646,12.0,0.798,50.1
34666,11.8,0.798,49.1
34694,11.7,0.798,48.0
34709,11.6,0.797,46.9
34735,11.5,0.797,46.0
34750,11.4,0.797,45.1
34769,11.3,0.797,44.2
34797,11.2,0.797,43.3
34813,11.1,0.797,42.3
34834,11.0,0.796,41.4
34850,10.9,0.797,40.6
34874,10.8,0.797,39.8
34884,10.7,0.797,39.1
34932,10.6,0.798,38.1
34953,10.5,0.797,37.6
34993,10.4,0.797,36.6
35035,10.3,0.797,35.7
35052,10.2,0.798,35.1
35068,10.1,0.798,34.4
36132,10.0,0.8,34.9
36152,9.8,0.8,34.5
36169,9.7,0.8,32.8
36186,9.6,0.8,30.9
36267,9.5,0.8,30.0
36293,9.4,0.798,29.7
36313,9.3,0.8,28.9
36352,9.2,0.797,27.5
36370,9.0,0.8,26.8
36391,8.9,0.797,25.9
36407,8.8,0.797,25.0
36424,8.7,0.797,24.2
36440,8.6,0.797,23.4
36472,8.5,0.796,22.6
36492,8.4,0.797,21.8
36511,8.3,0.797,21.1
36526,8.2,0.797,20.4
36542,8.1,0.797,19.7
36562,8.0,0.797,19.0
36611,7.9,0.798,17.8
36631,7.8,0.797,17.4
36659,7.7,0.798,16.6
36792,7.6,0.798,16.4
36806,7.5,0.798,15.8
36843,7.4,0.798,14.6
37064,7.5,0.8,15.3
37749,7.4,0.8,15.9
37783,7.3,0.801,14.9
37803,7.2,0.8,14.1
37869,7.1,0.8,13.2
37889,6.9,0.8,12.7
37909,6.8,0.8,11.8
37947,6.7,0.8,10.7
37957,6.6,0.798,10.3
37986,6.5,0.798,9.8
38007,6.4,0.798,9.3
38028,6.3,0.797,8.9
38069,6.2,0.798,8.1
38090,6.1,0.798,7.7
38126,6.0,0.798,7.2
38147,5.9,0.798,6.8
38163,5.8,0.798,6.5
38205,5.7,0.8,6.0
38228,5.6,0.8,5.8
38247,5.5,0.8,5.4
38266,5.4,0.798,5.0
38307,5.3,0.798,4.4
38327,5.2,0.8,4.1
39365,5.1,0.8,4.8
39377,5.0,0.8,4.8
39404,4.9,0.8,4.1
39425,4.7,0.8,3.2
39446,4.6,0.8,2.6
39466,4.5,0.8,2.2
39505,4.4,0.8,1.9
39541,4.3,0.798,1.7
39557,4.2,0.8,1.5
39585,4.1,0.8,1.3
39606,4.0,0.8,1.1
39645,3.9,0.798,0.7
39656,3.8,0.8,0.5
39682,3.7,0.8,0.3
39689,3.6,0.8,0.1
39722,3.5,0.8,0.0
39739,3.4,0.8,0.2
39758,3.3,0.798,0.4
39785,3.2,0.8,0.5
39805,3.1,0.798,0.7
39846,3.0,0.798,0.9
39872,2.9,0.8,1.0
40084,2.8,0.801,0.9
40862,2.7,0.8,0.4
40881,2.6,0.801,0.6
40904,2.5,0.798,0.8
40923,2.4,0.8,1.0
40944,2.3,0.8,1.2
40982,2.2,0.798,1.4
41000,2.1,0.801,1.4
41014,2.0,0.8,1.6
41032,1.9,0.8,1.6
41064,1.8,0.8,1.7
41081,1.7,0.8,1.9
41102,1.6,0.8,2.0
41121,1.4,0.798,2.0
41141,1.3,0.801,2.1
41162,1.2,0.8,2.2
41182,1.1,0.8,2.2
41189,1.0,0.8,2.3
41236,0.9,0.8,2.4
41264,0.8,0.8,2.4
41280,0.7,0.798,2.4
41299,0.6,0.801,2.3
41341,0.5,0.798,2.4
41363,0.4,0.798,2.5
