Time,Length,Pressure,Force
10,0.0,0.604,0.0
3564,0.1,0.604,0.1
3837,0.2,0.604,0.4
3867,0.3,0.604,0.6
3897,0.4,0.604,1.3
3924,0.5,0.604,1.8
3945,0.7,0.603,2.2
3965,0.8,0.604,2.6
3987,0.9,0.603,3.1
4007,1.1,0.604,3.7
4027,1.3,0.604,4.5
4044,1.5,0.604,5.3
4064,1.7,0.604,6.4
4083,1.9,0.605,7.5
4104,2.0,0.604,8.4
4126,2.1,0.604,8.8
4139,2.2,0.604,9.2
5361,2.3,0.604,8.8
5377,2.4,0.604,9.3
5392,2.5,0.603,10.1
5424,2.6,0.604,10.8
5444,2.7,0.604,11.4
5464,2.8,0.604,11.9
5481,2.9,0.604,12.5
5501,3.0,0.603,13.1
5521,3.2,0.604,13.7
5539,3.3,0.603,14.5
5558,3.4,0.604,15.1
5581,3.6,0.604,15.9
5604,3.8,0.604,16.7
5622,3.9,0.604,17.6
5638,4.1,0.604,18.4
5655,4.2,0.605,19.2
5680,4.3,0.604,19.9
5702,4.4,0.605,20.4
6754,4.5,0.603,20.2
6820,4.6,0.604,21.0
6841,4.7,0.604,21.4
6858,4.8,0.603,22.1
6865,4.9,0.604,22.8
6898,5.0,0.604,23.5
6939,5.1,0.605,24.6
6946,5.2,0.604,25.0
6976,5.3,0.605,25.5
7000,5.4,0.604,26.1
7020,5.5,0.604,26.7
7037,5.6,0.604,27.3
7054,5.8,0.605,28.0
7069,5.9,0.604,28.6
7096,6.1,0.604,29.5
7120,6.3,0.605,30.5
7140,6.5,0.607,31.7
7152,6.8,0.605,33.1
7172,6.9,0.604,34.6
7190,7.0,0.605,35.6
8376,7.1,0.605,34.7
8396,7.2,0.604,35.3
8418,7.3,0.605,36.4
8437,7.4,0.604,37.2
8460,7.5,0.605,38.5
8493,7.6,0.604,39.0
8514,7.7,0.604,39.6
8536,7.8,0.604,40.1
8556,7.9,0.604,40.7
8577,8.0,0.605,41.3
8595,8.1,0.605,42.0
8612,8.2,0.604,42.7
8632,8.3,0.605,43.4
8653,8.5,0.605,44.2
8676,8.6,0.605,44.9
8691,8.8,0.605,45.7
8708,8.9,0.605,46.8
8734,9.1,0.605,47.9
8757,9.3,0.605,49.2
8777,9.4,0.607,50.5
9773,9.5,0.605,50.1
9831,9.6,0.605,51.0
9854,9.7,0.604,51.6
9872,9.8,0.605,52.3
9892,9.9,0.605,53.0
9912,10.0,0.605,53.7
9919,10.1,0.605,54.5
9954,10.3,0.605,55.3
9974,10.4,0.605,56.3
9990,10.6,0.604,57.5
10015,10.8,0.605,58.7
10035,11.0,0.605,60.0
10053,11.2,0.605,61.3
10073,11.5,0.605,62.8
10093,11.8,0.607,64.7
10113,11.9,0.605,66.7
11371,12.0,0.605,66.6
11389,12.1,0.605,67.1
11411,12.2,0.605,68.1
11432,12.3,0.605,69.1
11453,12.4,0.605,69.8
11456,12.5,0.605,70.4
11489,12.6,0.605,71.1
11510,12.7,0.605,71.7
11546,12.8,0.605,73.1
11565,12.9,0.605,73.7
11590,13.0,0.607,74.3
11603,13.1,0.607,75.0
11628,13.2,0.607,75.7
11648,13.3,0.605,76.3
11667,13.5,0.607,77.3
11684,13.6,0.607,78.3
11703,13.9,0.607,79.2
11729,14.2,0.607,80.7
11751,14.4,0.607,82.8
11753,14.5,0.608,85.1
12869,14.6,0.607,84.7
12886,14.7,0.607,85.3
12927,14.8,0.607,86.8
12942,14.9,0.607,87.4
12954,15.0,0.607,87.9
13009,15.2,0.607,89.2
13029,15.3,0.608,90.0
13040,15.4,0.608,90.9
13067,15.5,0.607,91.8
13088,15.7,0.608,92.7
13107,15.8,0.608,93.8
13128,16.0,0.608,95.1
13142,16.2,0.608,96.4
13169,16.5,0.609,97.9
13188,16.7,0.609,99.6
13201,16.9,0.609,101.7
14463,17.0,0.608,102.3
14484,17.1,0.608,103.1
14514,17.2,0.608,104.5
14546,17.3,0.609,105.0
14566,17.4,0.609,105.7
14606,17.5,0.608,107.0
14609,17.6,0.609,107.6
14643,17.7,0.609,108.3
14663,17.8,0.609,109.0
14684,17.9,0.609,109.8
14704,18.0,0.61,110.7
14725,18.2,0.609,111.6
14731,18.3,0.61,112.7
14765,18.5,0.61,113.8
14782,18.6,0.61,114.9
14796,18.8,0.611,116.1
14810,18.9,0.611,117.4
14842,19.0,0.61,118.6
14865,19.1,0.61,119.5
14885,19.2,0.61,120.0
14926,19.3,0.61,120.8
14953,19.4,0.61,121.8
14979,19.5,0.611,122.3
15016,19.6,0.611,123.2
16021,19.7,0.609,122.8
16043,19.8,0.61,123.3
16060,19.9,0.61,124.3
16081,20.0,0.61,125.4
16102,20.1,0.61,126.3
16121,20.3,0.611,127.3
16138,20.5,0.613,128.4
16163,20.6,0.611,129.7
16169,20.8,0.613,131.2
16201,21.1,0.613,132.9
16220,21.4,0.614,134.9
16241,21.7,0.614,137.3
16261,21.8,0.615,139.8
17434,21.9,0.613,139.8
17461,22.0,0.613,140.8
17479,22.1,0.614,141.8
17497,22.2,0.614,142.8
17519,22.4,0.614,143.8
17539,22.5,0.613,144.8
17559,22.6,0.614,145.8
17580,22.7,0.614,146.8
17598,22.9,0.615,147.9
17615,23.0,0.615,149.1
17635,23.2,0.615,150.3
17657,23.3,0.615,151.6
17680,23.5,0.616,152.8
17697,23.6,0.616,154.0
17715,23.7,0.616,155.3
17740,23.8,0.618,156.5
17749,23.9,0.616,157.4
18749,24.0,0.615,156.5
18776,24.1,0.615,157.0
18793,24.2,0.616,158.1
18815,24.3,0.615,159.3
18837,24.4,0.615,160.4
18855,24.5,0.618,161.4
18878,24.7,0.616,162.4
18895,24.8,0.616,163.4
18912,24.9,0.618,164.4
18934,25.1,0.618,165.6
18951,25.2,0.618,167.0
18975,25.4,0.618,168.5
18996,25.6,0.619,170.0
19013,25.8,0.619,171.6
19036,26.1,0.62,173.5
19054,26.4,0.621,175.7
19075,26.5,0.621,178.3
20333,26.6,0.619,178.4
20352,26.7,0.619,178.5
20374,26.8,0.62,179.4
20394,26.9,0.62,180.9
20414,27.1,0.62,182.4
20435,27.2,0.62,183.6
20455,27.3,0.62,184.8
20472,27.4,0.621,185.9
20493,27.5,0.621,186.9
20503,27.6,0.621,187.6
20551,27.8,0.621,189.0
20574,27.9,0.622,190.0
20595,28.0,0.622,191.2
20604,28.2,0.622,192.5
20631,28.4,0.624,193.9
20652,28.6,0.625,195.7
20673,28.9,0.625,197.8
20693,29.0,0.625,200.3
21888,29.1,0.622,199.8
21909,29.3,0.624,200.9
21930,29.4,0.624,202.8
21950,29.5,0.625,204.3
21971,29.7,0.625,205.6
21991,29.8,0.625,206.9
22009,30.0,0.626,208.3
22032,30.2,0.626,210.0
22048,30.4,0.629,211.8
22063,30.7,0.629,213.9
22089,31.0,0.63,216.4
22110,31.3,0.63,219.2
22131,31.6,0.631,222.5
23305,31.7,0.629,223.7
23325,31.8,0.63,224.3
23362,31.9,0.63,226.6
23388,32.1,0.63,227.8
23408,32.2,0.63,228.9
23429,32.3,0.631,230.0
23445,32.4,0.631,231.2
23467,32.5,0.631,232.3
23487,32.7,0.632,233.6
23505,32.9,0.632,235.1
23520,33.1,0.633,236.8
23548,33.3,0.633,238.8
23564,33.5,0.633,240.9
23586,33.8,0.636,243.4
23600,33.9,0.636,246.1
24743,34.0,0.632,245.4
24764,34.1,0.633,246.1
24785,34.2,0.633,247.6
24805,34.3,0.635,249.1
24826,34.5,0.636,250.5
24843,34.6,0.636,252.0
24858,34.8,0.636,253.8
24884,35.0,0.637,255.8
24890,35.2,0.638,257.8
24923,35.4,0.638,260.0
24945,35.7,0.641,262.2
24961,36.0,0.641,264.8
24985,36.4,0.642,267.8
25006,36.6,0.643,272.2
26283,36.7,0.641,272.6
26299,36.8,0.641,273.7
26315,36.9,0.641,275.3
26335,37.0,0.642,276.9
26362,37.1,0.641,278.2
26380,37.2,0.643,279.4
26396,37.3,0.643,280.6
26423,37.5,0.643,281.9
26443,37.6,0.643,283.2
26459,37.8,0.646,284.7
26481,38.0,0.644,286.8
26501,38.3,0.647,289.4
26521,38.5,0.648,292.4
26541,38.7,0.648,295.3
26562,38.8,0.649,298.0
26582,38.9,0.649,299.3
26609,39.0,0.649,300.2
28458,38.9,0.643,295.9
28478,38.8,0.643,295.4
28495,38.7,0.642,294.0
28516,38.5,0.642,292.1
28536,38.4,0.641,290.1
28546,38.3,0.641,288.7
28578,38.2,0.64,287.4
28596,38.0,0.638,286.0
28610,37.9,0.638,284.2
28639,37.7,0.638,282.4
28659,37.6,0.638,280.8
28676,37.5,0.638,279.5
28695,37.4,0.636,278.3
28717,37.3,0.636,276.9
28737,37.1,0.635,275.6
28778,37.0,0.635,273.2
28791,36.9,0.635,272.4
28801,36.8,0.635,271.5
28833,36.7,0.633,270.4
28852,36.6,0.632,269.1
29917,36.5,0.631,267.9
29933,36.3,0.63,267.3
29954,35.9,0.63,265.2
29965,35.7,0.627,261.6
30076,35.5,0.629,258.0
30088,35.4,0.627,257.3
30114,35.2,0.626,255.4
30130,34.9,0.626,253.3
30152,34.7,0.625,251.1
30169,34.5,0.624,248.8
30195,34.3,0.622,246.6
30216,34.1,0.622,244.2
30236,33.8,0.62,242.1
30252,33.7,0.619,239.7
30273,33.6,0.62,237.7
31486,33.5,0.62,236.6
31510,33.4,0.619,235.8
31530,33.3,0.618,234.8
31550,33.2,0.618,233.7
31571,33.1,0.619,232.7
31590,33.0,0.618,231.6
31610,32.9,0.618,230.6
31630,32.8,0.618,229.7
31641,32.7,0.616,228.9
31667,32.6,0.616,228.0
31690,32.5,0.616,227.0
31713,32.3,0.616,226.0
31724,32.1,0.614,224.6
31752,31.9,0.614,222.9
31772,31.6,0.613,220.7
31793,31.4,0.613,217.7
31802,31.3,0.613,215.5
33049,31.2,0.611,214.8
33070,30.9,0.611,214.1
33091,30.7,0.61,211.5
33108,30.6,0.609,209.5
33116,30.5,0.609,208.1
33147,30.4,0.608,206.8
33165,30.3,0.608,205.9
33185,30.2,0.608,205.2
33206,30.1,0.608,204.3
33229,30.0,0.608,203.2
33247,29.8,0.608,202.0
33267,29.7,0.607,200.8
33287,29.5,0.607,199.5
33308,29.3,0.607,198.1
33328,29.2,0.605,196.3
33340,29.1,0.605,194.6
34487,29.0,0.605,194.1
34505,28.9,0.604,193.6
34524,28.8,0.604,192.7
34565,28.7,0.604,190.9
34585,28.6,0.604,190.2
34606,28.5,0.604,189.4
34624,28.4,0.603,188.7
34641,28.3,0.603,187.8
34656,28.2,0.603,186.8
34682,28.0,0.602,185.6
34705,27.8,0.602,184.4
34721,27.7,0.6,183.0
34738,27.5,0.602,181.5
34765,27.4,0.602,180.1
34786,27.2,0.6,178.6
34794,26.9,0.6,177.0
34827,26.6,0.599,174.8
34832,26.4,0.599,172.0
36282,26.2,0.603,171.8
36297,25.9,0.603,170.2
36324,25.8,0.602,167.7
36344,25.6,0.602,166.0
36363,25.5,0.602,164.9
36383,25.4,0.603,163.9
36404,25.3,0.602,163.2
36421,25.2,0.603,162.3
36440,25.1,0.602,161.4
36457,24.9,0.602,160.3
36482,24.8,0.602,159.1
36492,24.6,0.602,157.7
36522,24.4,0.602,156.1
36534,24.3,0.602,154.7
36560,24.2,0.602,153.8
37699,24.1,0.605,153.5
37752,24.0,0.603,153.0
37800,23.9,0.604,151.9
37802,23.8,0.604,151.3
37838,23.7,0.604,150.4
37851,23.6,0.603,149.6
37879,23.4,0.603,148.8
37900,23.3,0.603,147.8
37920,23.1,0.603,146.7
37941,23.0,0.602,145.5
37959,22.9,0.602,144.2
37978,22.7,0.602,143.0
37994,22.6,0.602,141.8
38006,22.4,0.6,140.7
38036,22.2,0.602,139.6
38060,22.0,0.602,138.2
38078,21.7,0.6,136.1
38100,21.6,0.6,133.8
39435,21.5,0.604,133.7
39456,21.3,0.605,133.5
39477,21.1,0.604,131.8
39493,21.0,0.603,130.5
39538,20.9,0.604,128.8
39545,20.8,0.603,128.1
39572,20.6,0.603,127.3
39595,20.5,0.603,126.4
39615,20.3,0.602,125.2
39635,20.2,0.602,123.9
39656,20.0,0.602,122.6
39677,19.8,0.603,121.4
39697,19.7,0.602,120.1
39714,19.5,0.602,118.9
39830,19.4,0.603,117.3
39857,19.3,0.602,117.2
39873,19.2,0.602,116.5
40353,19.3,0.604,116.4
40931,19.2,0.605,116.7
40991,19.1,0.604,116.3
41010,19.0,0.604,115.5
41053,18.9,0.604,114.3
41074,18.8,0.604,113.7
41095,18.7,0.604,113.1
41128,18.6,0.603,111.8
41152,18.5,0.604,111.0
41172,18.3,0.602,110.2
41193,18.2,0.603,109.3
41213,18.1,0.603,108.2
41234,17.9,0.603,107.1
41253,17.8,0.602,105.9
41274,17.7,0.602,105.0
41293,17.6,0.602,104.1
41311,17.5,0.602,103.2
41332,17.4,0.603,102.4
41352,17.3,0.603,101.7
41374,17.2,0.602,100.9
42588,17.0,0.604,101.0
42610,16.8,0.604,100.2
42631,16.6,0.604,98.4
42691,16.5,0.604,96.5
42712,16.4,0.603,96.1
42728,16.3,0.603,95.2
42749,16.1,0.604,94.2
42768,15.9,0.603,93.0
42782,15.8,0.603,91.8
42807,15.6,0.603,90.4
42830,15.4,0.602,89.0
42847,15.3,0.602,87.6
42862,15.1,0.602,86.4
42888,15.0,0.602,85.3
42904,14.9,0.603,84.2
42929,14.7,0.603,83.2
43066,14.6,0.603,81.8
43109,14.5,0.602,81.5
43130,14.4,0.602,80.8
44237,14.3,0.604,80.8
44268,14.2,0.603,80.1
44288,14.1,0.603,79.2
44325,14.0,0.604,78.1
44342,13.9,0.603,77.5
44359,13.8,0.604,76.7
44386,13.7,0.603,75.8
44407,13.5,0.603,74.8
44425,13.4,0.604,73.7
44445,13.2,0.603,72.6
44458,13.0,0.603,71.3
44486,12.9,0.603,70.0
44506,12.8,0.602,69.0
44527,12.6,0.603,68.0
44547,12.4,0.603,66.9
44568,12.2,0.603,65.6
44588,12.0,0.603,63.9
45804,11.8,0.603,63.3
45824,11.5,0.604,62.6
45843,11.4,0.603,60.0
45859,11.3,0.603,58.5
45873,11.2,0.603,57.7
45899,11.0,0.604,56.8
45922,10.9,0.604,55.8
45938,10.8,0.604,54.8
45954,10.6,0.603,53.8
45984,10.5,0.604,52.8
46004,10.3,0.604,51.8
46022,10.2,0.603,50.7
46042,10.0,0.602,49.6
46061,9.9,0.603,48.3
46080,9.7,0.602,47.1
46160,9.6,0.603,45.6
46202,9.5,0.604,45.4
46222,9.4,0.603,44.5
47422,9.3,0.604,45.1
47460,9.2,0.603,44.0
47476,9.1,0.604,43.5
47521,9.0,0.604,42.2
47541,8.9,0.603,41.5
47561,8.7,0.604,40.8
47583,8.6,0.604,39.8
47602,8.4,0.604,38.8
47615,8.2,0.604,37.5
47637,8.0,0.604,36.1
47654,7.9,0.604,34.6
47671,7.7,0.604,33.5
47698,7.5,0.604,32.4
47721,7.3,0.603,31.2
47741,7.1,0.603,29.6
47751,7.0,0.604,28.2
48945,6.9,0.604,29.3
48979,6.7,0.603,28.6
48998,6.5,0.603,26.4
49010,6.4,0.604,25.1
49035,6.3,0.603,24.3
49056,6.2,0.604,23.5
49077,6.0,0.603,22.7
49097,5.9,0.603,21.7
49114,5.7,0.603,20.6
49131,5.6,0.603,19.6
49156,5.4,0.604,18.6
49162,5.2,0.604,17.6
49195,5.1,0.604,16.6
49216,4.9,0.603,15.6
49237,4.7,0.604,14.5
49257,4.6,0.603,13.3
50329,4.5,0.604,14.3
50356,4.4,0.604,13.7
50405,4.3,0.604,11.8
50433,4.2,0.604,11.5
50472,4.1,0.604,10.8
50488,4.0,0.605,10.4
50513,3.8,0.604,9.9
50520,3.7,0.604,9.2
50555,3.5,0.604,8.4
50567,3.3,0.603,7.4
50593,3.1,0.604,6.4
50613,2.9,0.604,5.7
50633,2.6,0.603,4.8
50654,2.2,0.604,3.9
50674,2.1,0.604,2.8
50875,2.2,0.604,3.1
52030,2.1,0.604,4.1
52050,1.8,0.604,3.8
52069,1.5,0.604,2.6
52086,1.4,0.605,1.2
52101,1.2,0.604,0.5
52133,1.1,0.604,0.1
52149,1.0,0.604,0.2
52169,0.9,0.604,0.5
52190,0.7,0.605,0.7
52204,0.6,0.604,1.0
52230,0.4,0.604,1.3
52246,0.2,0.604,1.6
52272,0.0,0.604,1.9
52289,-0.1,0.604,2.1
52306,-0.2,0.604,2.4
52350,-0.3,0.604,2.4
52370,-0.4,0.604,2.4
52411,-0.3,0.604,2.7
53348,-0.4,0.604,2.0
53589,-0.5,0.604,2.2
