Time,Length,Pressure,Force
0,0.0,0.5,0.0
2243,0.2,0.5,0.1
2264,0.4,0.5,1.2
2284,0.6,0.5,2.6
2306,0.8,0.499,3.3
2324,0.9,0.5,4.0
2346,1.1,0.5,4.6
2364,1.2,0.5,5.2
2387,1.4,0.5,5.9
2401,1.6,0.499,6.5
2423,1.7,0.5,7.2
2444,1.8,0.5,7.8
2465,1.9,0.5,8.4
2483,2.0,0.5,8.7
2674,2.1,0.5,8.6
3222,2.2,0.5,8.9
3284,2.3,0.5,9.6
3325,2.4,0.5,10.3
3361,2.5,0.5,10.8
3401,2.6,0.5,11.3
3463,2.7,0.5,11.7
3484,2.8,0.5,12.0
3502,2.9,0.5,12.4
3522,3.0,0.5,12.9
3542,3.1,0.5,13.4
3563,3.2,0.5,13.9
3584,3.4,0.5,14.6
3602,3.5,0.501,15.4
3624,3.7,0.5,16.1
3644,3.9,0.5,16.8
3663,4.1,0.501,17.6
3678,4.3,0.501,18.5
3704,4.5,0.5,19.6
3723,4.7,0.5,20.8
3743,4.8,0.5,21.8
3763,4.9,0.5,22.4
3841,5.0,0.501,22.4
3861,5.1,0.501,23.0
4979,5.3,0.501,22.8
5000,5.5,0.5,24.1
5020,5.6,0.5,25.3
5041,5.7,0.501,26.1
5062,5.8,0.501,26.7
5082,5.9,0.501,27.2
5098,6.0,0.501,27.7
5140,6.1,0.501,28.0
5158,6.2,0.501,28.6
5178,6.3,0.501,29.2
5197,6.5,0.501,29.7
5221,6.6,0.5,30.5
5237,6.8,0.501,31.3
5258,7.0,0.501,32.3
5279,7.3,0.501,33.5
5299,7.5,0.501,34.9
5357,7.4,0.501,35.7
5417,7.5,0.501,35.3
6360,7.6,0.5,35.1
6377,7.7,0.499,35.7
6392,7.8,0.5,36.3
6435,7.9,0.5,37.5
6458,8.0,0.501,38.0
6476,8.1,0.5,38.6
6498,8.2,0.501,39.2
6516,8.3,0.501,39.8
6536,8.4,0.5,40.3
6557,8.6,0.501,40.9
6577,8.7,0.501,41.6
6595,8.9,0.501,42.4
6618,9.0,0.501,43.4
6630,9.2,0.501,44.3
6650,9.5,0.503,45.3
6676,9.7,0.501,46.6
6695,9.9,0.503,48.3
7933,10.0,0.501,48.3
7953,10.1,0.5,48.6
7974,10.2,0.501,49.5
8015,10.3,0.501,50.9
8036,10.4,0.5,51.5
8056,10.5,0.501,52.0
8076,10.7,0.501,52.7
8096,10.8,0.501,53.4
8113,11.0,0.501,54.2
8134,11.1,0.503,55.2
8155,11.3,0.503,56.2
8175,11.5,0.501,57.4
8195,11.7,0.503,58.7
8214,11.9,0.501,59.9
8236,12.1,0.503,61.1
8252,12.2,0.503,62.1
8271,12.3,0.503,62.8
8314,12.4,0.503,63.6
8374,12.5,0.503,64.4
9313,12.6,0.503,63.9
9333,12.7,0.503,64.4
9352,12.8,0.503,65.0
9370,12.9,0.501,65.7
9391,13.0,0.503,66.4
9412,13.1,0.503,67.2
9432,13.3,0.503,68.1
9452,13.5,0.503,69.1
9462,13.7,0.503,70.1
9493,13.9,0.504,71.3
9507,14.1,0.504,72.6
9528,14.4,0.505,74.1
9551,14.7,0.505,76.0
9564,14.8,0.505,77.8
9592,14.9,0.505,78.9
10751,15.0,0.504,78.0
10768,15.1,0.503,78.6
10788,15.2,0.504,79.5
10807,15.3,0.504,80.4
10828,15.4,0.503,81.0
10849,15.5,0.504,81.7
10866,15.6,0.505,82.4
10889,15.8,0.505,83.2
10905,15.9,0.505,84.2
10927,16.2,0.505,85.4
10947,16.4,0.505,86.8
10968,16.6,0.506,88.3
10989,16.8,0.506,89.9
11009,16.9,0.506,91.2
11029,17.0,0.506,92.3
12008,17.2,0.505,91.7
12022,17.3,0.506,92.7
12046,17.5,0.504,94.0
12066,17.6,0.505,95.0
12086,17.7,0.505,95.8
12107,17.8,0.505,96.6
12127,17.9,0.506,97.4
12148,18.1,0.506,98.3
12168,18.3,0.508,99.3
12183,18.5,0.506,100.4
12209,18.7,0.508,101.8
12226,18.9,0.509,103.2
12246,19.2,0.508,104.8
12266,19.6,0.509,106.7
12286,19.7,0.51,109.0
12345,19.8,0.509,110.9
12385,19.9,0.51,111.3
13502,20.0,0.508,110.4
13524,20.1,0.509,111.1
13545,20.2,0.508,112.0
13565,20.3,0.508,112.8
13580,20.4,0.509,113.6
13602,20.6,0.508,114.4
13623,20.7,0.51,115.3
13643,20.8,0.509,116.2
13663,21.0,0.51,117.3
13684,21.2,0.51,118.4
13704,21.4,0.511,119.9
13723,21.7,0.511,121.3
13744,22.0,0.512,123.0
13763,22.2,0.512,125.2
13782,22.3,0.512,127.2
14842,22.4,0.51,126.9
14863,22.5,0.511,127.7
14878,22.6,0.511,128.6
14897,22.7,0.511,129.4
14921,22.8,0.511,130.2
14941,22.9,0.511,131.0
14962,23.1,0.512,131.8
14980,23.2,0.512,132.7
15002,23.3,0.512,133.7
15022,23.5,0.514,134.8
15040,23.6,0.514,135.7
15058,23.7,0.514,136.7
15080,23.9,0.514,137.7
15100,24.1,0.514,138.8
15121,24.4,0.515,140.2
15142,24.5,0.515,142.1
15210,24.6,0.515,144.0
16356,24.7,0.512,142.7
16395,24.8,0.514,144.0
16429,24.9,0.514,144.8
16461,25.0,0.514,145.3
16477,25.1,0.514,146.0
16498,25.2,0.514,146.8
16517,25.3,0.515,147.6
16534,25.4,0.516,148.5
16559,25.5,0.515,149.4
16577,25.7,0.515,150.4
16599,25.8,0.516,151.6
16620,26.0,0.516,152.8
16636,26.2,0.516,154.0
16652,26.4,0.517,155.5
16678,26.6,0.517,157.0
16695,26.8,0.517,158.5
16718,26.9,0.519,160.0
16738,27.0,0.519,161.4
16760,27.1,0.519,162.3
17613,27.2,0.517,161.9
17671,27.3,0.517,162.7
17695,27.4,0.519,163.5
17717,27.5,0.519,164.3
17724,27.6,0.517,165.2
17751,27.7,0.52,166.0
17769,27.8,0.519,166.8
17796,27.9,0.519,167.7
17817,28.1,0.52,168.6
17835,28.2,0.52,169.6
17855,28.4,0.521,170.7
17866,28.6,0.521,172.0
17880,28.8,0.522,173.5
17915,29.0,0.521,175.2
17931,29.3,0.522,177.0
17954,29.5,0.525,179.3
17969,29.6,0.523,181.8
18037,29.7,0.525,182.7
19202,29.8,0.521,182.0
19228,29.9,0.522,182.6
19251,30.0,0.522,183.6
19260,30.1,0.522,184.7
19288,30.3,0.522,185.9
19311,30.4,0.523,187.1
19332,30.5,0.523,188.2
19352,30.7,0.525,189.4
19373,30.8,0.525,190.4
19393,30.9,0.526,191.5
19407,31.1,0.527,192.5
19433,31.2,0.526,193.7
19447,31.4,0.526,195.0
19470,31.5,0.527,196.3
19491,31.8,0.527,197.8
19511,32.0,0.528,199.7
20039,31.9,0.527,200.6
20110,31.8,0.527,199.3
20351,31.9,0.526,198.7
20401,32.0,0.526,200.1
20471,32.1,0.526,200.7
20491,32.2,0.527,201.5
20531,32.3,0.527,203.2
20552,32.4,0.528,203.8
20569,32.5,0.528,204.6
20587,32.6,0.528,205.4
20630,32.7,0.528,206.7
20651,32.8,0.528,207.3
20671,32.9,0.528,208.0
20692,33.0,0.53,208.8
20712,33.2,0.53,210.1
20727,33.5,0.531,211.8
20745,33.7,0.532,213.9
20769,34.1,0.533,216.4
20780,34.5,0.533,219.5
22122,34.6,0.531,221.4
22166,34.7,0.532,222.9
22185,34.8,0.532,223.8
22207,34.9,0.533,224.6
22248,35.0,0.533,226.2
22268,35.1,0.533,226.8
22306,35.2,0.533,228.0
22321,35.3,0.534,228.7
22346,35.4,0.533,229.6
22365,35.5,0.534,230.4
22388,35.6,0.536,231.5
22408,35.7,0.534,232.7
22428,35.9,0.536,233.8
22448,36.0,0.536,235.0
22464,36.1,0.537,236.3
22482,36.3,0.537,237.7
22506,36.5,0.537,239.2
22526,36.7,0.539,240.7
22546,36.8,0.541,242.7
22567,36.9,0.539,244.6
23546,37.0,0.537,243.0
23563,37.2,0.538,244.5
23604,37.3,0.539,247.2
23615,37.4,0.541,248.2
23645,37.5,0.541,249.1
23665,37.7,0.541,250.3
23685,37.8,0.541,251.6
23702,37.9,0.542,252.9
23723,38.0,0.542,254.2
23743,38.1,0.542,255.2
23784,38.2,0.542,256.0
23802,38.3,0.542,256.6
23823,38.4,0.542,257.5
23844,38.5,0.544,258.7
23865,38.8,0.545,260.1
23870,39.1,0.545,262.4
23903,39.5,0.547,265.8
25701,39.3,0.539,265.1
25721,39.1,0.538,263.6
25742,39.0,0.539,260.6
25819,38.8,0.538,258.8
25832,38.5,0.536,257.0
25858,38.3,0.536,254.7
25874,38.1,0.534,252.4
25901,37.9,0.533,250.1
25922,37.7,0.532,247.8
25938,37.5,0.533,245.7
25959,37.4,0.532,244.1
25976,37.3,0.531,242.6
25995,37.2,0.531,241.4
26018,37.1,0.53,240.6
26116,37.0,0.53,239.4
27098,36.9,0.528,238.6
27112,36.8,0.528,238.3
27138,36.6,0.527,237.0
27170,36.5,0.527,234.5
27196,36.4,0.527,233.9
27217,36.3,0.527,233.1
27237,36.2,0.526,232.3
27258,36.1,0.525,231.4
27275,36.0,0.525,230.4
27292,35.9,0.525,229.4
27317,35.8,0.523,228.3
27328,35.7,0.523,227.1
27354,35.6,0.523,226.1
27376,35.4,0.522,225.0
27397,35.3,0.522,223.9
27438,35.2,0.522,222.1
27459,35.1,0.521,221.2
27478,35.0,0.52,220.2
27497,34.8,0.521,219.3
27512,34.7,0.52,218.2
28646,34.5,0.519,216.6
28672,34.2,0.519,215.4
28692,34.1,0.519,212.7
28774,34.0,0.517,211.1
28794,33.8,0.517,210.6
28813,33.7,0.515,209.4
28833,33.5,0.515,207.8
28855,33.3,0.515,206.1
28874,33.1,0.514,204.4
28895,32.9,0.514,202.8
28914,32.8,0.512,201.2
28936,32.6,0.511,199.6
28953,32.4,0.511,198.1
28973,32.2,0.511,196.7
28994,32.1,0.51,195.0
30005,32.0,0.511,193.7
30051,31.9,0.51,192.7
30072,31.8,0.51,192.2
30092,31.7,0.51,191.8
30112,31.6,0.51,190.8
30127,31.5,0.509,189.7
30153,31.4,0.509,188.8
30173,31.2,0.508,187.7
30190,31.0,0.506,186.3
30210,30.8,0.506,184.7
30231,30.6,0.506,183.0
30249,30.5,0.505,181.5
30270,30.3,0.504,180.1
30292,30.0,0.504,178.5
30312,29.7,0.504,176.8
30333,29.5,0.503,174.5
31570,29.3,0.503,172.0
31584,29.1,0.501,171.2
31607,28.9,0.501,169.2
31627,28.8,0.5,167.9
31648,28.7,0.5,166.9
31668,28.6,0.5,166.1
31701,28.5,0.499,164.7
31726,28.4,0.499,164.0
31740,28.3,0.5,163.4
31766,28.2,0.499,162.7
31783,28.0,0.499,161.8
31806,27.9,0.498,160.7
31829,27.8,0.498,159.6
31849,27.6,0.497,158.5
31869,27.5,0.498,157.3
31888,27.3,0.498,156.2
31910,27.2,0.495,155.1
31919,27.1,0.495,154.0
31947,27.0,0.497,153.0
31966,27.1,0.497,152.9
32906,27.0,0.5,154.4
32926,26.9,0.499,154.0
32946,26.8,0.5,153.3
32988,26.7,0.499,152.2
33007,26.6,0.499,151.8
33022,26.5,0.499,151.2
33043,26.4,0.498,150.4
33059,26.2,0.498,149.3
33086,26.0,0.499,148.1
33106,25.9,0.498,146.8
33119,25.7,0.498,145.6
33147,25.5,0.498,144.4
33168,25.3,0.497,143.1
33188,25.1,0.495,141.8
33205,24.9,0.495,140.3
33225,24.7,0.495,138.9
33242,24.5,0.495,137.2
34523,24.3,0.5,137.0
34542,24.1,0.499,136.5
34565,23.9,0.5,134.7
34585,23.8,0.499,133.4
34602,23.7,0.499,132.4
34620,23.6,0.499,131.4
34640,23.4,0.499,130.5
34663,23.3,0.498,129.6
34683,23.1,0.497,128.6
34703,22.9,0.498,127.5
34724,22.8,0.498,126.3
34745,22.6,0.498,125.1
34757,22.5,0.497,123.9
34780,22.3,0.498,122.9
34801,22.2,0.498,122.1
34822,22.1,0.497,121.4
34861,22.0,0.497,120.2
34884,22.1,0.498,120.0
35781,22.0,0.5,121.3
35822,21.9,0.5,120.8
35862,21.8,0.499,120.0
35899,21.7,0.499,119.4
35915,21.6,0.5,119.0
35940,21.5,0.499,118.5
35961,21.4,0.499,117.8
35982,21.3,0.499,117.2
36001,21.2,0.499,116.5
36018,21.1,0.499,115.7
36038,21.0,0.498,115.0
36059,20.9,0.498,114.3
36075,20.8,0.499,113.6
36100,20.7,0.499,112.8
36114,20.6,0.498,112.0
36141,20.4,0.498,111.1
36161,20.3,0.498,110.2
36181,20.1,0.498,109.2
36199,20.0,0.498,108.1
36219,19.9,0.498,107.2
36240,19.8,0.498,106.4
37300,19.5,0.5,107.0
37313,19.4,0.499,105.6
37337,19.2,0.499,103.9
37358,19.1,0.499,103.2
37378,19.0,0.499,102.4
37396,18.9,0.498,101.5
37418,18.8,0.498,100.7
37436,18.6,0.498,99.9
37456,18.5,0.499,99.1
37474,18.4,0.499,98.3
37497,18.2,0.499,97.4
37517,18.1,0.498,96.4
37537,18.0,0.497,95.6
37558,17.9,0.498,94.9
37590,17.8,0.498,93.9
37636,17.7,0.498,93.3
37657,17.6,0.498,92.9
37677,17.5,0.498,92.5
37698,17.4,0.498,91.9
38694,17.3,0.5,91.7
38714,17.2,0.5,91.1
38734,17.1,0.5,90.6
38754,17.0,0.499,90.1
38771,16.9,0.499,89.5
38795,16.7,0.499,88.7
38815,16.6,0.499,87.5
38836,16.4,0.498,86.4
38857,16.3,0.499,85.5
38873,16.1,0.499,84.5
38894,16.0,0.499,83.4
38914,15.9,0.499,82.5
38923,15.7,0.498,81.7
38943,15.6,0.498,80.8
38975,15.4,0.498,79.8
38994,15.3,0.498,78.7
39016,15.1,0.498,77.7
39020,15.0,0.498,76.7
39053,14.9,0.498,75.8
39074,14.8,0.498,75.0
40373,14.7,0.5,75.5
40379,14.4,0.5,75.1
40413,14.2,0.5,73.2
40434,14.1,0.498,71.5
40450,13.9,0.499,70.3
40469,13.8,0.5,69.3
40491,13.7,0.498,68.6
40510,13.6,0.499,67.9
40519,13.5,0.498,67.2
40553,13.4,0.499,66.5
40572,13.3,0.499,65.7
40592,13.2,0.498,65.0
40609,13.1,0.498,64.3
40630,13.0,0.499,63.8
40650,12.9,0.498,63.3
40684,12.8,0.498,62.5
40704,12.7,0.499,62.2
40724,12.6,0.498,61.7
40761,12.5,0.499,60.6
40989,12.6,0.499,61.0
41705,12.5,0.5,61.5
41728,12.4,0.5,61.4
41749,12.3,0.5,60.8
41768,12.2,0.499,59.9
41789,12.1,0.5,59.0
41807,12.0,0.499,58.4
41820,11.9,0.5,57.9
41846,11.8,0.499,57.2
41857,11.6,0.499,56.2
41886,11.5,0.5,55.2
41908,11.3,0.499,54.3
41928,11.2,0.5,53.4
41949,11.0,0.499,52.4
41970,10.9,0.499,51.5
41989,10.8,0.499,50.8
42007,10.7,0.499,50.1
42023,10.6,0.499,49.4
42048,10.5,0.499,48.7
42068,10.4,0.499,48.1
42089,10.3,0.499,47.6
43404,10.1,0.501,47.9
43426,9.9,0.499,47.2
43448,9.7,0.499,45.4
43464,9.6,0.499,43.5
43587,9.5,0.499,42.9
43592,9.3,0.5,42.8
43624,9.1,0.5,41.6
43641,8.9,0.5,40.0
43665,8.8,0.499,38.9
43686,8.7,0.499,38.0
43706,8.5,0.499,37.2
43726,8.4,0.498,36.4
43744,8.3,0.499,35.7
44736,8.2,0.5,35.7
44763,8.1,0.5,35.6
44783,8.0,0.5,35.0
44804,7.9,0.5,34.1
44824,7.7,0.5,33.0
44842,7.5,0.5,31.8
44858,7.3,0.499,30.6
44874,7.1,0.5,29.4
44900,7.0,0.5,28.3
44922,6.9,0.5,27.7
44943,6.8,0.499,27.2
44961,6.6,0.499,26.3
44983,6.4,0.498,25.2
45004,6.2,0.499,24.0
45022,6.1,0.499,22.9
45042,5.9,0.499,21.8
45062,5.7,0.499,20.9
45084,5.5,0.499,20.0
45104,5.4,0.499,19.0
45112,5.2,0.499,17.9
45146,5.0,0.499,16.9
46234,4.9,0.5,17.0
46255,4.8,0.499,16.7
46282,4.7,0.499,15.4
46298,4.6,0.5,14.3
46319,4.4,0.5,13.9
46340,4.3,0.499,13.2
46361,4.2,0.499,12.3
46378,4.0,0.5,11.4
46399,3.8,0.5,10.6
46414,3.7,0.5,9.7
46431,3.5,0.5,8.8
46450,3.4,0.5,7.9
46480,3.3,0.499,7.3
46501,3.2,0.499,6.9
46507,3.1,0.499,6.5
46582,3.0,0.5,6.0
46619,2.9,0.499,5.6
46636,2.7,0.499,5.2
46657,2.6,0.5,4.7
46837,2.7,0.499,4.8
47477,2.6,0.5,5.6
47519,2.5,0.499,5.1
47558,2.4,0.499,4.2
47567,2.3,0.5,3.6
47598,2.1,0.5,3.0
47618,1.9,0.5,2.2
47638,1.8,0.499,1.4
47658,1.6,0.5,0.7
47679,1.5,0.5,0.1
47697,1.3,0.499,0.4
47714,1.2,0.5,0.8
47726,1.1,0.5,1.1
47758,0.9,0.5,1.6
47772,0.8,0.499,2.1
47794,0.6,0.499,2.5
47818,0.5,0.499,2.9
47839,0.3,0.5,3.3
47855,0.2,0.5,3.6
47875,0.1,0.499,4.0
