Time,Length,Pressure,Force
2,0.0,0.599,0.0
2686,0.1,0.598,0.1
2707,0.2,0.598,0.3
2727,0.3,0.599,0.6
2739,0.4,0.598,1.0
2768,0.5,0.598,1.4
2786,0.7,0.598,1.9
2805,0.9,0.598,2.4
2823,1.1,0.598,3.1
2846,1.3,0.598,3.9
2866,1.5,0.598,4.8
2884,1.8,0.598,5.8
2903,2.1,0.599,6.9
2916,2.3,0.598,8.1
2948,2.5,0.598,9.1
2965,2.6,0.598,10.0
2985,2.8,0.599,10.8
3001,3.0,0.598,11.6
3020,3.1,0.599,12.4
3047,3.2,0.598,12.9
3067,3.3,0.598,13.3
3088,3.4,0.598,13.8
3105,3.5,0.599,14.3
3129,3.7,0.599,15.0
3142,3.9,0.599,15.8
3164,4.2,0.599,16.9
3177,4.4,0.599,18.2
3202,4.6,0.599,19.6
3226,4.7,0.599,20.6
3246,4.8,0.599,21.3
3267,5.0,0.598,21.9
3277,5.1,0.599,22.5
3303,5.2,0.599,23.2
3325,5.4,0.599,24.0
3344,5.6,0.599,24.9
3364,5.8,0.599,25.9
3385,5.9,0.6,26.9
3394,6.1,0.599,27.9
3427,6.2,0.599,28.8
3444,6.4,0.599,29.7
3464,6.6,0.6,30.7
3484,6.8,0.599,31.9
3505,7.0,0.6,33.1
3526,7.2,0.6,34.2
3544,7.3,0.6,35.3
3561,7.5,0.599,36.1
3578,7.6,0.6,36.9
3605,7.8,0.599,37.8
3615,8.0,0.6,38.8
3645,8.1,0.6,39.9
3664,8.3,0.6,40.8
3684,8.5,0.6,41.7
3706,8.7,0.6,42.9
3727,9.0,0.6,44.4
3745,9.2,0.6,45.9
3762,9.4,0.6,47.6
3782,9.6,0.6,49.1
3815,9.8,0.6,50.6
3841,9.9,0.602,51.2
3863,10.0,0.602,52.1
3887,10.2,0.6,53.0
3900,10.4,0.6,53.9
3925,10.6,0.602,55.1
3929,10.8,0.602,56.4
3964,11.0,0.6,57.7
3985,11.2,0.602,59.1
3995,11.4,0.603,60.4
4025,11.6,0.603,61.9
4044,11.9,0.603,63.5
4064,12.1,0.603,65.1
4078,12.2,0.603,66.6
4096,12.3,0.603,67.7
4115,12.4,0.604,68.5
4144,12.5,0.603,69.1
4164,12.7,0.603,69.8
4185,12.8,0.604,70.8
4205,12.9,0.603,71.7
4221,13.0,0.603,72.3
4233,13.1,0.604,73.0
4259,13.3,0.604,74.0
4282,13.4,0.604,74.9
4304,13.5,0.605,75.8
4324,13.7,0.604,76.8
4338,14.0,0.605,78.1
4365,14.2,0.605,79.6
4385,14.5,0.605,81.6
4399,14.7,0.605,83.6
4416,14.8,0.605,84.9
4443,15.0,0.607,85.9
4464,15.2,0.607,87.2
4483,15.4,0.607,88.6
4499,15.6,0.607,90.0
4518,15.8,0.607,91.4
4530,16.1,0.607,93.0
4559,16.3,0.608,94.9
4583,16.6,0.609,96.8
4603,16.8,0.608,98.9
4623,17.0,0.609,100.6
4644,17.1,0.609,102.1
4665,17.3,0.608,103.3
4685,17.4,0.609,104.4
4694,17.6,0.61,105.4
4720,17.7,0.609,106.4
4743,17.9,0.609,107.6
4751,18.0,0.61,108.9
4785,18.2,0.61,110.1
4805,18.4,0.61,111.6
4824,18.6,0.61,113.2
4844,18.9,0.611,114.7
4865,19.1,0.611,116.4
4879,19.2,0.613,118.1
4893,19.3,0.611,119.4
4920,19.5,0.611,120.3
4944,19.6,0.611,121.2
4964,19.8,0.613,122.4
4975,19.9,0.613,123.6
5002,20.1,0.613,124.8
5022,20.3,0.613,126.1
5042,20.5,0.613,127.5
5062,20.7,0.615,128.9
5082,20.9,0.614,130.4
5099,21.1,0.614,132.0
5119,21.3,0.615,133.6
5129,21.6,0.616,135.5
5163,21.7,0.616,137.5
5168,21.8,0.616,138.9
5203,21.9,0.615,139.9
5216,22.0,0.616,140.6
5240,22.2,0.616,141.5
5262,22.4,0.615,142.7
5283,22.5,0.618,143.9
5303,22.7,0.618,145.2
5321,22.8,0.618,146.6
5341,23.0,0.618,147.8
5355,23.2,0.619,149.1
5371,23.3,0.618,150.6
5401,23.5,0.619,152.0
5419,23.6,0.62,153.2
5433,23.8,0.62,154.5
5463,24.0,0.621,155.9
5483,24.2,0.62,157.4
5500,24.3,0.62,158.8
5519,24.5,0.621,160.2
5540,24.6,0.621,161.5
5558,24.8,0.621,162.7
5579,24.9,0.622,164.0
5603,25.0,0.622,165.2
5620,25.2,0.624,166.3
5636,25.4,0.622,167.7
5663,25.5,0.624,169.0
5681,25.7,0.624,170.5
5701,25.9,0.624,172.0
5722,26.2,0.625,173.9
5742,26.4,0.625,176.0
5760,26.6,0.626,178.1
5776,26.7,0.626,180.1
5792,26.8,0.626,181.3
5824,26.9,0.627,182.1
5836,27.1,0.627,182.9
5853,27.3,0.627,184.1
5872,27.4,0.627,185.6
5901,27.5,0.627,187.1
5922,27.7,0.627,188.4
5942,27.8,0.629,189.3
5956,27.9,0.629,190.4
5967,28.1,0.63,191.8
5999,28.3,0.63,193.3
6020,28.5,0.63,194.9
6031,28.7,0.631,196.7
6058,28.9,0.631,198.6
6081,29.0,0.631,200.3
6100,29.1,0.632,201.5
6122,29.2,0.631,202.3
6139,29.3,0.631,203.1
6160,29.4,0.632,204.1
6180,29.5,0.632,205.2
6188,29.6,0.632,206.3
6221,29.8,0.633,207.5
6241,30.0,0.633,209.0
6262,30.2,0.633,210.6
6282,30.3,0.635,212.3
6294,30.5,0.636,214.0
6319,30.8,0.635,215.8
6331,31.0,0.637,218.0
6360,31.3,0.638,220.4
6381,31.4,0.638,222.9
6400,31.5,0.638,224.8
6421,31.6,0.638,225.9
6428,31.7,0.638,226.7
6454,31.9,0.64,227.8
6475,32.1,0.64,229.2
6492,32.2,0.641,230.7
6511,32.4,0.641,232.4
6537,32.5,0.642,234.1
6560,32.7,0.642,235.6
6571,32.9,0.642,237.0
6598,33.1,0.643,238.9
6619,33.3,0.643,240.9
6629,33.4,0.644,242.5
6655,33.6,0.643,244.2
6681,33.8,0.644,246.1
6696,34.0,0.646,248.2
6713,34.1,0.646,250.0
6741,34.2,0.646,251.3
6761,34.3,0.644,252.3
6771,34.5,0.644,253.4
6798,34.6,0.644,254.5
6819,34.7,0.646,255.5
6839,34.9,0.647,256.8
6860,35.1,0.646,258.5
6880,35.4,0.646,260.7
6898,35.7,0.646,263.0
6918,36.0,0.647,265.7
6932,36.3,0.648,269.3
6958,36.4,0.648,272.7
7020,36.5,0.646,273.1
7040,36.7,0.646,273.7
7061,36.8,0.644,275.2
7081,37.0,0.646,276.6
7085,37.1,0.646,277.8
7114,37.3,0.644,279.0
7137,37.4,0.644,280.4
7156,37.5,0.644,281.7
7178,37.7,0.644,282.8
7197,37.8,0.646,284.2
7219,38.0,0.646,285.7
7238,38.2,0.644,287.3
7257,38.4,0.646,288.9
7278,38.6,0.646,291.1
7298,38.7,0.646,293.8
8011,38.6,0.638,289.5
8027,38.4,0.638,288.3
8045,38.3,0.637,286.6
8078,38.1,0.636,284.4
8093,37.9,0.636,282.2
8117,37.8,0.635,280.4
8138,37.6,0.635,278.8
8158,37.4,0.633,277.0
8175,37.2,0.633,275.0
8184,37.1,0.632,273.0
8217,37.0,0.631,271.3
8235,36.8,0.63,269.8
8258,36.6,0.63,268.0
8269,36.4,0.627,266.1
8297,36.0,0.627,263.8
8318,35.8,0.625,260.6
8354,35.6,0.626,256.6
8375,35.4,0.625,255.9
8391,35.3,0.625,253.7
8417,35.1,0.624,252.1
8426,34.9,0.622,250.3
8455,34.7,0.622,248.6
8475,34.5,0.622,246.7
8490,34.3,0.62,244.6
8507,34.2,0.62,242.6
8521,34.0,0.62,240.6
8555,33.7,0.619,238.7
8576,33.5,0.616,236.5
8596,33.2,0.616,234.0
8617,33.0,0.616,231.5
8637,32.8,0.615,229.6
8653,32.6,0.614,227.6
8673,32.4,0.614,225.5
8690,32.1,0.613,223.3
8710,31.9,0.613,221.1
8730,31.7,0.61,218.7
8746,31.4,0.61,216.5
8776,31.1,0.609,213.9
8788,31.0,0.609,211.2
8817,30.9,0.609,209.8
8833,30.7,0.609,208.8
8852,30.5,0.608,207.0
8874,30.4,0.608,205.4
8883,30.2,0.608,203.9
8916,30.1,0.607,202.4
8936,29.9,0.607,201.1
8950,29.8,0.607,199.8
8968,29.7,0.604,198.6
8993,29.6,0.605,197.4
9014,29.5,0.603,196.3
9034,29.3,0.604,195.4
9052,29.2,0.604,194.5
9068,29.1,0.603,193.4
9094,28.9,0.603,192.1
9110,28.6,0.602,190.3
9133,28.4,0.602,188.3
9149,28.3,0.602,186.2
9169,28.2,0.602,185.1
9180,28.0,0.6,184.2
9215,27.9,0.6,182.7
9235,27.7,0.599,181.5
9256,27.5,0.599,180.2
9267,27.3,0.599,178.5
9293,27.2,0.599,176.9
9313,26.9,0.598,175.3
9333,26.7,0.597,173.4
9354,26.4,0.597,171.2
9374,26.2,0.596,168.9
9394,26.1,0.596,166.6
9413,25.9,0.596,165.4
9436,25.7,0.596,164.3
9452,25.5,0.596,162.7
9473,25.4,0.596,161.3
9487,25.2,0.594,160.0
9513,25.0,0.594,158.6
9534,24.9,0.594,157.3
9552,24.7,0.594,156.0
9565,24.5,0.594,154.7
9591,24.4,0.594,153.4
9607,24.2,0.594,152.2
9628,24.1,0.593,151.0
9652,23.9,0.596,149.9
9670,23.8,0.594,148.8
9694,23.6,0.594,147.6
9715,23.5,0.594,146.4
9734,23.3,0.596,145.4
9749,23.2,0.596,144.4
9771,23.1,0.593,143.3
9780,22.9,0.596,142.3
9813,22.8,0.596,141.3
9833,22.6,0.596,140.1
9853,22.5,0.594,138.9
9874,22.4,0.596,137.9
9895,22.2,0.596,137.0
9911,22.1,0.596,136.0
9932,21.9,0.594,135.1
9952,21.6,0.596,133.8
9969,21.3,0.594,132.1
9989,21.1,0.594,129.8
10008,21.0,0.594,127.7
10021,20.8,0.594,126.8
10053,20.6,0.594,125.6
10072,20.4,0.594,124.0
10091,20.2,0.594,122.5
10111,20.0,0.594,120.9
10132,19.7,0.594,119.3
10141,19.5,0.596,117.5
10169,19.2,0.594,115.6
10187,18.9,0.594,113.5
10211,18.7,0.596,111.3
10240,18.6,0.594,109.3
10271,18.5,0.596,109.1
10288,18.3,0.596,108.2
10312,18.2,0.596,106.8
10333,18.0,0.596,105.9
10353,17.9,0.596,105.0
10374,17.7,0.596,103.9
10394,17.6,0.594,102.7
10411,17.4,0.596,101.6
10423,17.3,0.596,100.5
10440,17.2,0.596,99.6
10472,17.0,0.596,98.6
10493,16.8,0.596,97.6
10511,16.6,0.596,96.3
10534,16.4,0.596,95.0
10550,16.2,0.596,93.5
10571,16.0,0.596,91.8
10590,15.8,0.597,90.3
10607,15.6,0.596,88.9
10623,15.4,0.596,87.5
10649,15.2,0.596,86.0
10672,15.0,0.596,84.5
10686,14.8,0.596,83.0
10710,14.5,0.596,81.4
10715,14.3,0.596,79.5
10750,14.0,0.596,77.5
10771,13.9,0.596,75.7
10791,13.8,0.597,74.3
10833,13.6,0.597,73.7
10849,13.4,0.597,72.7
10862,13.3,0.597,71.1
10886,13.1,0.597,70.1
10911,13.0,0.596,69.1
10928,12.8,0.597,68.0
10946,12.6,0.597,66.8
10969,12.5,0.597,65.6
10992,12.3,0.597,64.4
11012,12.1,0.597,63.3
11030,11.9,0.597,62.1
11041,11.8,0.598,60.9
11067,11.7,0.597,59.8
11090,11.5,0.596,58.8
11109,11.3,0.597,57.9
11130,11.1,0.597,56.7
11138,10.9,0.597,55.2
11172,10.7,0.597,53.7
11189,10.5,0.598,52.3
11209,10.3,0.597,51.0
11230,10.1,0.597,49.6
11249,9.9,0.597,48.2
11270,9.7,0.597,46.7
11288,9.5,0.597,45.3
11306,9.3,0.596,43.8
11328,9.1,0.597,42.3
11349,9.0,0.597,41.0
11368,8.9,0.597,40.0
11389,8.7,0.597,39.2
11410,8.6,0.597,38.3
11431,8.4,0.597,37.3
11439,8.3,0.597,36.2
11471,8.1,0.598,35.5
11490,7.9,0.597,34.5
11507,7.8,0.597,33.2
11527,7.6,0.597,31.8
11541,7.4,0.597,30.6
11561,7.2,0.597,29.4
11590,7.0,0.597,28.3
11610,6.9,0.597,27.1
11631,6.7,0.598,26.0
11651,6.5,0.597,25.0
11661,6.3,0.597,24.0
11673,6.1,0.597,22.7
11709,5.9,0.597,21.4
11729,5.8,0.597,20.2
11747,5.6,0.598,19.1
11761,5.4,0.597,17.8
11787,5.2,0.597,16.6
11793,5.0,0.597,15.5
11828,4.8,0.598,14.3
11848,4.6,0.597,13.3
11869,4.5,0.598,12.5
11889,4.4,0.598,11.9
11909,4.3,0.597,11.5
11930,4.2,0.598,11.1
11950,4.0,0.598,10.5
11966,3.8,0.598,9.4
11988,3.7,0.597,8.8
11996,3.5,0.598,8.2
12028,3.4,0.598,7.7
12049,3.3,0.598,7.2
12070,3.1,0.598,6.7
12090,3.0,0.598,6.1
12110,2.9,0.598,5.6
12126,2.7,0.598,5.2
12144,2.6,0.598,4.9
12161,2.5,0.598,4.5
12175,2.4,0.598,4.1
12209,2.2,0.598,3.7
12229,2.0,0.598,3.2
12247,1.7,0.598,2.5
12270,1.5,0.599,1.6
12286,1.4,0.598,1.0
12307,1.2,0.598,0.7
12328,1.0,0.598,0.5
12343,0.9,0.598,0.1
12360,0.7,0.599,0.2
12388,0.6,0.598,0.5
12407,0.4,0.598,0.7
12430,0.3,0.599,0.9
12445,0.2,0.598,1.1
12462,0.1,0.598,1.2
12479,0.0,0.598,1.3
12600,-0.1,0.599,1.5
