Time,Length,Pressure,Force
8,0.0,0.604,0.0
2365,-0.1,0.603,0.1
2482,-0.2,0.604,0.5
2622,-0.3,0.604,0.9
2905,-0.2,0.604,0.7
2938,-0.1,0.603,0.6
2962,0.0,0.604,0.3
2973,0.2,0.604,0.1
3002,0.3,0.604,0.7
3021,0.4,0.604,1.2
3040,0.5,0.604,1.6
3055,0.6,0.604,2.0
3072,0.7,0.604,2.3
3100,0.8,0.604,2.6
3142,0.9,0.604,3.1
3159,1.0,0.604,3.4
3174,1.1,0.604,3.7
3203,1.2,0.603,4.0
3222,1.3,0.604,4.3
3242,1.4,0.604,4.7
3253,1.5,0.604,5.0
3269,1.6,0.604,5.4
3302,1.7,0.604,6.0
3321,1.9,0.605,6.6
3342,2.1,0.604,7.3
3363,2.4,0.603,8.2
3383,2.6,0.604,9.3
3394,2.7,0.604,10.4
4781,2.9,0.604,10.2
4792,3.0,0.604,10.7
4820,3.1,0.605,11.9
4841,3.2,0.604,12.8
4857,3.3,0.603,13.5
4879,3.5,0.605,14.0
4892,3.6,0.604,14.5
4910,3.7,0.604,15.1
4936,3.8,0.605,15.6
4958,4.0,0.604,16.3
4975,4.1,0.605,17.0
4992,4.3,0.604,17.8
5008,4.5,0.604,18.7
5034,4.7,0.604,19.7
5058,4.9,0.604,20.7
5079,5.0,0.604,21.7
5099,5.1,0.605,22.5
5119,5.2,0.604,23.0
5154,5.3,0.605,23.6
5192,5.4,0.605,24.2
6435,5.5,0.605,23.8
6456,5.6,0.604,24.4
6475,5.7,0.604,25.1
6495,5.8,0.604,25.9
6516,5.9,0.604,26.6
6533,6.0,0.604,27.2
6553,6.1,0.604,27.9
6565,6.2,0.604,28.5
6592,6.4,0.604,29.3
6615,6.5,0.605,30.2
6636,6.7,0.605,31.1
6656,6.8,0.605,31.9
6675,7.1,0.604,32.9
6695,7.3,0.604,34.1
6716,7.5,0.605,35.4
6724,7.6,0.605,36.7
6751,7.7,0.605,37.4
8030,7.8,0.604,36.6
8050,7.9,0.604,36.9
8063,8.0,0.605,38.1
8089,8.2,0.604,39.3
8113,8.3,0.604,40.3
8130,8.4,0.605,41.3
8147,8.6,0.604,42.2
8171,8.8,0.605,43.2
8189,8.9,0.605,44.2
8213,9.1,0.604,45.3
8230,9.3,0.605,46.3
8249,9.5,0.605,47.4
8271,9.8,0.605,48.8
8294,10.0,0.607,50.5
8311,10.1,0.605,52.4
9521,10.2,0.604,52.0
9558,10.3,0.604,52.6
9590,10.4,0.604,53.3
9607,10.5,0.604,54.1
9622,10.6,0.605,55.1
9648,10.8,0.605,56.1
9671,11.0,0.605,57.3
9690,11.2,0.605,58.8
9711,11.4,0.605,60.1
9730,11.6,0.605,61.5
9749,11.9,0.607,63.0
9768,12.1,0.607,64.5
9788,12.3,0.607,66.1
9803,12.4,0.607,67.7
11108,12.5,0.604,67.3
11124,12.6,0.605,67.3
11140,12.7,0.604,68.1
11151,12.9,0.604,69.7
11185,13.1,0.605,71.0
11203,13.2,0.605,72.3
11217,13.4,0.607,73.4
11242,13.5,0.605,74.5
11268,13.7,0.607,75.7
11282,13.8,0.607,77.0
11304,14.0,0.607,78.1
11325,14.1,0.607,79.1
11346,14.3,0.607,80.3
11366,14.5,0.607,81.5
11387,14.7,0.608,83.0
11407,14.8,0.608,84.3
11427,14.9,0.608,85.2
12703,15.0,0.605,84.6
12742,15.1,0.605,85.4
12784,15.2,0.605,86.5
12803,15.3,0.605,87.0
12817,15.4,0.605,87.6
12843,15.5,0.607,88.4
12865,15.7,0.607,89.3
12883,15.8,0.607,90.5
12898,16.0,0.607,91.9
12917,16.1,0.608,93.1
12944,16.3,0.607,94.3
12964,16.5,0.608,95.6
12984,16.7,0.608,97.0
13004,17.0,0.608,98.6
13017,17.3,0.609,100.6
13043,17.4,0.609,102.9
14507,17.5,0.608,102.7
14541,17.6,0.608,103.1
14561,17.7,0.608,104.0
14581,17.8,0.608,105.3
14602,18.0,0.608,106.5
14616,18.1,0.607,107.6
14643,18.3,0.609,108.7
14653,18.4,0.609,109.9
14682,18.6,0.608,111.2
14696,18.8,0.609,112.4
14722,18.9,0.609,113.7
14742,19.1,0.609,115.0
14762,19.3,0.609,116.4
14772,19.5,0.61,117.6
14797,19.8,0.61,119.2
14819,19.9,0.611,121.3
14836,20.0,0.611,123.1
16056,20.1,0.609,122.5
16096,20.2,0.609,123.2
16113,20.3,0.609,124.0
16137,20.4,0.61,124.7
16178,20.5,0.609,126.2
16198,20.7,0.61,127.0
16210,20.8,0.61,127.8
16233,20.9,0.61,128.8
16252,21.1,0.611,130.0
16277,21.2,0.611,131.2
16297,21.4,0.611,132.5
16315,21.7,0.613,134.0
16336,21.9,0.613,135.9
16355,22.2,0.614,138.1
16375,22.4,0.613,140.5
17664,22.5,0.613,140.8
17690,22.6,0.613,141.8
17714,22.7,0.611,143.0
17735,22.8,0.613,144.0
17754,23.0,0.613,144.9
17776,23.1,0.613,145.9
17792,23.2,0.614,147.0
17813,23.4,0.614,148.1
17834,23.5,0.614,149.2
17854,23.6,0.614,150.4
17870,23.8,0.615,151.6
17889,23.9,0.615,152.8
17903,24.1,0.615,154.0
17930,24.2,0.615,155.3
17953,24.4,0.615,156.5
17973,24.6,0.616,157.9
17993,24.7,0.616,159.5
18091,24.8,0.616,161.0
19111,24.9,0.614,160.2
19132,25.0,0.615,160.9
19153,25.1,0.615,161.7
19170,25.2,0.615,162.6
19188,25.3,0.615,163.5
19204,25.4,0.616,164.5
19220,25.5,0.616,165.5
19252,25.7,0.616,166.6
19272,25.8,0.618,168.0
19292,26.0,0.616,169.4
19299,26.2,0.619,170.8
19332,26.4,0.619,172.3
19345,26.7,0.619,174.2
19369,27.0,0.62,176.5
19390,27.3,0.621,179.5
20688,27.4,0.619,181.0
20724,27.5,0.619,182.2
20750,27.6,0.619,183.2
20757,27.7,0.62,184.2
20807,27.8,0.619,185.6
20848,27.9,0.62,186.5
20889,28.0,0.62,187.3
20909,28.1,0.62,188.0
20930,28.3,0.62,188.9
20946,28.5,0.621,190.2
20967,28.7,0.621,191.9
20982,28.9,0.622,193.9
21000,29.2,0.622,196.1
21026,29.3,0.622,198.5
21348,29.4,0.622,199.9
22164,29.5,0.621,200.0
22224,29.6,0.622,200.7
22245,29.7,0.621,201.5
22265,29.8,0.624,202.7
22281,29.9,0.622,203.8
22297,30.0,0.624,204.8
22313,30.1,0.624,205.8
22339,30.2,0.624,206.7
22364,30.4,0.625,207.6
22384,30.5,0.625,208.8
22404,30.8,0.625,210.5
22425,31.1,0.626,212.6
22445,31.4,0.627,215.3
22464,31.7,0.629,218.5
22484,32.0,0.63,221.8
22523,32.1,0.629,225.8
23961,32.2,0.627,223.7
23981,32.4,0.627,224.8
24002,32.5,0.629,226.6
24012,32.7,0.629,228.3
24043,32.9,0.629,230.0
24059,33.0,0.63,231.7
24083,33.2,0.631,233.3
24096,33.3,0.631,235.1
24122,33.5,0.632,236.7
24141,33.7,0.632,238.3
24161,33.9,0.632,240.2
24182,34.2,0.635,242.3
24203,34.5,0.635,245.1
25393,34.6,0.632,246.6
25410,34.7,0.632,247.1
25437,34.8,0.633,248.3
25461,34.9,0.633,249.9
25480,35.0,0.635,251.3
25493,35.2,0.633,252.7
25517,35.3,0.633,254.0
25538,35.4,0.635,255.4
25554,35.6,0.636,256.9
25577,35.8,0.636,258.4
25597,36.0,0.636,260.4
25617,36.2,0.638,262.8
25639,36.6,0.641,265.5
25660,37.0,0.641,268.8
25680,37.2,0.641,273.3
27029,37.3,0.64,273.9
27073,37.4,0.638,275.4
27097,37.5,0.64,276.5
27111,37.6,0.64,277.6
27128,37.7,0.641,278.9
27148,37.9,0.641,280.3
27175,38.0,0.641,281.8
27187,38.2,0.642,283.5
27213,38.4,0.643,285.4
27233,38.6,0.644,287.6
27254,38.9,0.646,290.2
27275,39.2,0.647,293.2
27295,39.4,0.648,296.9
28849,39.2,0.642,295.2
28870,38.9,0.641,293.6
28885,38.6,0.64,290.6
28905,38.4,0.64,287.1
28934,38.3,0.638,284.4
28950,38.1,0.637,282.3
28968,37.9,0.637,280.2
28985,37.7,0.636,278.2
29011,37.5,0.635,276.2
29031,37.3,0.635,273.9
29052,37.2,0.633,271.8
29073,37.0,0.632,270.2
29094,36.8,0.632,268.2
29102,36.7,0.631,266.5
30191,36.5,0.63,264.6
30202,36.2,0.629,263.3
30229,36.1,0.627,260.1
30252,35.9,0.629,258.2
30262,35.8,0.626,256.9
30287,35.7,0.626,255.6
30309,35.5,0.626,254.3
30330,35.3,0.626,252.9
30350,35.1,0.625,251.0
30371,34.9,0.624,248.8
30391,34.7,0.624,246.5
30407,34.5,0.622,244.2
30423,34.4,0.621,242.2
30449,34.3,0.62,240.7
30471,34.2,0.62,239.5
30490,34.1,0.621,238.5
31649,34.0,0.619,237.5
31668,33.9,0.62,236.8
31685,33.8,0.62,236.1
31706,33.7,0.619,235.1
31717,33.5,0.619,233.6
31743,33.3,0.618,232.1
31766,33.1,0.616,230.4
31786,32.9,0.616,228.6
31806,32.7,0.616,226.6
31823,32.4,0.615,224.4
31845,32.0,0.614,222.0
31866,31.9,0.613,218.6
33086,31.7,0.611,216.1
33103,31.4,0.61,214.8
33123,31.1,0.61,212.0
33140,30.9,0.609,209.3
33164,30.7,0.609,207.2
33184,30.6,0.608,205.3
33206,30.4,0.608,203.7
33226,30.3,0.608,202.3
33236,30.1,0.607,201.0
33262,30.0,0.607,199.6
33283,29.9,0.605,198.3
33299,29.8,0.605,197.1
33317,29.6,0.607,196.1
34378,29.5,0.605,194.5
34422,29.4,0.605,193.7
34463,29.3,0.605,193.0
34499,29.2,0.604,192.0
34541,29.1,0.604,190.8
34561,29.0,0.604,190.2
34577,28.9,0.603,189.4
34593,28.8,0.603,188.4
34618,28.6,0.603,187.4
34639,28.5,0.603,186.2
34646,28.4,0.603,185.2
34678,28.3,0.602,184.2
34701,28.2,0.602,183.2
34721,27.9,0.6,182.0
34741,27.7,0.6,180.3
34761,27.4,0.6,178.3
34782,27.2,0.6,175.7
35900,27.1,0.605,174.6
35905,26.8,0.604,174.2
35937,26.6,0.603,172.3
35957,26.5,0.603,169.8
35978,26.3,0.603,168.4
35996,26.2,0.603,167.4
36016,26.1,0.602,166.5
36039,26.0,0.603,165.6
36060,25.9,0.602,164.8
36080,25.8,0.602,164.0
36097,25.7,0.602,162.9
36107,25.5,0.603,161.7
36133,25.4,0.6,160.5
36158,25.2,0.602,159.2
36170,25.1,0.6,158.0
36197,24.9,0.6,156.7
36220,24.8,0.6,155.4
36238,24.7,0.6,154.0
37214,24.6,0.605,154.4
37297,24.5,0.604,153.6
37315,24.3,0.604,152.9
37335,24.2,0.604,151.9
37355,24.0,0.603,150.6
37360,23.9,0.603,149.3
37395,23.7,0.603,148.1
37416,23.5,0.603,146.9
37436,23.4,0.603,145.5
37457,23.2,0.602,144.2
37470,23.0,0.603,142.9
37494,22.9,0.602,141.5
37515,22.6,0.602,140.0
37532,22.3,0.6,138.2
37541,22.1,0.6,135.8
38849,21.9,0.604,135.2
38870,21.7,0.603,133.6
38894,21.5,0.603,131.7
38914,21.4,0.603,130.3
38931,21.2,0.603,129.1
38952,21.1,0.603,127.9
38972,21.0,0.602,126.9
38991,20.8,0.602,125.8
39000,20.7,0.602,124.6
39033,20.5,0.602,123.5
39054,20.3,0.602,122.2
39070,20.1,0.602,120.9
39091,19.9,0.602,119.4
39111,19.8,0.602,117.8
39193,19.7,0.603,116.6
40171,19.6,0.604,116.6
40189,19.5,0.605,116.3
40209,19.4,0.604,115.7
40250,19.3,0.604,114.5
40270,19.2,0.604,113.9
40290,19.1,0.603,113.2
40303,18.9,0.603,112.3
40313,18.8,0.604,111.2
40349,18.6,0.603,109.8
40358,18.5,0.603,108.4
40391,18.4,0.602,107.3
40398,18.2,0.603,106.3
40431,18.1,0.602,105.3
40451,17.9,0.603,104.3
40471,17.7,0.602,103.1
40492,17.5,0.602,101.6
40498,17.3,0.602,99.8
41646,17.1,0.604,99.2
41664,16.9,0.603,98.3
41688,16.8,0.603,96.6
41709,16.7,0.604,95.5
41718,16.6,0.603,94.6
41749,16.4,0.603,93.6
41766,16.3,0.603,92.7
41786,16.2,0.603,91.7
41806,16.0,0.603,90.6
41827,15.9,0.603,89.4
41839,15.7,0.603,88.1
41868,15.5,0.602,86.9
41886,15.4,0.602,85.5
41899,15.2,0.602,84.2
41925,15.0,0.602,83.0
41947,14.9,0.603,81.8
41987,15.0,0.602,80.4
42208,14.9,0.604,81.7
43037,14.8,0.605,81.3
43125,14.7,0.604,80.6
43183,14.6,0.604,79.7
43203,14.5,0.604,79.3
43244,14.4,0.604,78.2
43265,14.3,0.604,77.6
43285,14.2,0.604,77.0
43305,14.1,0.604,76.3
43326,14.0,0.604,75.4
43346,13.9,0.604,74.4
43363,13.8,0.604,73.6
43383,13.7,0.603,72.9
43404,13.6,0.603,72.3
43424,13.5,0.603,71.6
43444,13.4,0.603,71.0
43465,13.3,0.604,70.2
43472,13.2,0.603,69.5
43503,13.1,0.603,68.8
43523,12.9,0.603,67.8
43543,12.7,0.604,66.7
43564,12.5,0.603,65.1
43575,12.4,0.603,63.6
44661,12.3,0.604,63.7
44681,12.2,0.604,63.3
44699,12.1,0.604,62.1
44720,12.0,0.604,61.2
44741,11.8,0.603,60.1
44753,11.6,0.603,58.8
44780,11.5,0.604,57.4
44801,11.3,0.604,56.1
44821,11.2,0.603,55.1
44841,11.0,0.603,54.0
44862,10.9,0.603,53.0
44882,10.7,0.603,51.8
44903,10.6,0.603,50.7
44918,10.4,0.603,49.5
44934,10.3,0.603,48.5
44954,10.1,0.604,47.5
44966,10.0,0.602,46.5
45019,10.1,0.603,45.1
46057,10.0,0.604,47.2
46176,9.9,0.605,46.4
46197,9.8,0.605,46.0
46217,9.7,0.604,45.3
46230,9.6,0.604,44.5
46256,9.5,0.604,43.7
46279,9.4,0.604,42.9
46284,9.3,0.604,42.1
46319,9.2,0.604,41.1
46325,9.0,0.605,40.1
46357,8.9,0.603,39.0
46377,8.7,0.604,37.8
46397,8.6,0.604,36.6
46418,8.4,0.604,35.6
46436,8.3,0.604,34.8
46457,8.1,0.604,33.9
46464,8.0,0.603,32.9
46496,7.8,0.603,31.6
46515,7.7,0.603,30.2
47696,7.5,0.605,30.8
47716,7.3,0.604,30.4
47737,7.2,0.604,28.0
47758,7.0,0.604,26.6
47774,6.9,0.604,25.9
47791,6.7,0.604,25.0
47816,6.6,0.604,24.0
47833,6.5,0.604,23.0
47856,6.3,0.604,21.8
47867,6.1,0.604,20.8
47896,6.0,0.604,19.7
47913,5.8,0.604,18.6
47934,5.7,0.604,17.7
47954,5.6,0.604,16.9
47966,5.5,0.603,16.2
47993,5.4,0.604,15.6
48074,5.2,0.604,15.4
48093,5.0,0.604,14.9
48115,4.9,0.604,13.5
48134,5.0,0.604,12.6
49190,4.9,0.604,14.4
49212,4.8,0.604,13.8
49253,4.7,0.604,12.5
49273,4.6,0.604,11.9
49294,4.4,0.604,11.3
49311,4.3,0.603,10.6
49320,4.1,0.604,9.7
49351,3.9,0.603,8.8
49371,3.7,0.604,7.9
49392,3.5,0.604,7.4
49413,3.4,0.604,6.7
49433,3.2,0.603,6.1
49453,3.0,0.604,5.4
49474,2.8,0.604,4.7
50588,2.6,0.604,5.5
50609,2.3,0.604,4.5
50629,2.1,0.603,3.1
50649,1.9,0.604,2.4
50670,1.8,0.603,1.9
50690,1.6,0.604,1.4
50707,1.5,0.604,1.1
50731,1.4,0.604,0.8
50747,1.2,0.604,0.6
50768,1.0,0.604,0.3
50789,0.9,0.604,0.0
50809,0.7,0.605,0.3
50829,0.6,0.604,0.5
50848,0.5,0.604,0.6
50879,0.4,0.604,0.8
50989,0.3,0.604,0.7
51587,0.2,0.604,0.5
