Time,Length,Pressure,Force
14,0.0,0.302,0.0
2961,0.1,0.304,0.2
2979,0.3,0.302,0.5
2998,0.4,0.304,0.9
3016,0.6,0.302,1.4
3038,0.8,0.302,1.9
3062,0.9,0.302,2.4
3080,1.0,0.304,3.2
3100,1.1,0.304,3.5
3120,1.2,0.302,3.7
3140,1.3,0.302,3.9
3157,1.4,0.304,4.3
3169,1.5,0.304,4.6
3202,1.7,0.302,5.0
3219,1.8,0.304,5.3
3235,1.9,0.304,5.7
3253,2.1,0.304,6.1
3277,2.2,0.304,6.5
3285,2.4,0.302,7.0
3319,2.6,0.304,7.4
3334,2.7,0.304,7.9
3361,2.9,0.304,8.4
3378,3.0,0.304,8.9
5008,3.1,0.304,9.1
5036,3.2,0.302,9.2
5077,3.3,0.302,9.8
5098,3.4,0.302,9.9
5133,3.5,0.302,10.5
5148,3.6,0.304,10.8
5196,3.7,0.302,11.1
5213,3.8,0.302,11.3
5256,3.9,0.304,11.8
5278,4.0,0.302,12.1
5298,4.1,0.304,12.4
5306,4.2,0.304,12.7
5335,4.3,0.304,13.0
5355,4.5,0.304,13.4
5373,4.6,0.304,13.8
5387,4.8,0.304,14.3
5413,4.9,0.304,14.9
5438,5.1,0.304,15.4
5454,5.3,0.304,16.1
5472,5.5,0.304,16.8
5577,5.6,0.304,17.5
5595,5.7,0.304,17.6
5618,5.8,0.304,18.0
6895,5.9,0.302,18.0
6932,6.0,0.302,18.6
6994,6.1,0.302,19.0
7013,6.2,0.302,19.2
7035,6.3,0.304,19.5
7054,6.4,0.304,19.9
7070,6.5,0.302,20.4
7087,6.6,0.304,20.8
7113,6.7,0.304,21.2
7120,6.8,0.304,21.6
7153,6.9,0.304,21.9
7173,7.0,0.304,22.2
7186,7.1,0.304,22.6
7214,7.2,0.304,22.9
7252,7.3,0.304,23.5
7272,7.4,0.304,23.8
7279,7.5,0.304,24.2
7314,7.7,0.304,24.5
7335,7.8,0.304,25.0
7373,7.9,0.304,25.8
7473,8.0,0.304,25.8
9167,8.1,0.302,25.9
9188,8.3,0.302,26.2
9207,8.4,0.304,26.8
9230,8.5,0.302,27.3
9250,8.6,0.304,27.7
9270,8.7,0.304,28.1
9287,8.8,0.304,28.6
9303,8.9,0.304,29.1
9329,9.0,0.304,29.5
9349,9.1,0.304,29.9
9370,9.2,0.304,30.2
9387,9.3,0.304,30.6
9399,9.4,0.304,30.9
9430,9.5,0.304,31.3
9437,9.6,0.304,31.8
9468,9.8,0.304,32.3
9488,9.9,0.305,32.8
9510,10.1,0.304,33.4
9521,10.3,0.305,34.1
9549,10.4,0.305,34.7
9568,10.6,0.305,35.3
9584,10.8,0.305,36.0
11365,10.9,0.304,36.1
11377,11.0,0.302,36.5
11406,11.1,0.304,37.1
11425,11.2,0.304,37.5
11446,11.3,0.304,37.9
11466,11.4,0.304,38.3
11474,11.5,0.304,38.6
11501,11.6,0.304,39.0
11538,11.7,0.304,39.7
11565,11.8,0.304,40.0
11577,11.9,0.304,40.4
11604,12.0,0.304,40.8
11625,12.1,0.304,41.2
11646,12.3,0.304,41.7
11663,12.5,0.305,42.4
11683,12.7,0.305,43.1
11700,12.8,0.305,44.0
11779,12.9,0.305,44.7
11806,13.0,0.305,44.7
13496,13.1,0.302,44.8
13516,13.2,0.302,44.9
13538,13.3,0.304,45.5
13545,13.4,0.302,46.0
13578,13.5,0.304,46.5
13596,13.6,0.304,47.0
13621,13.7,0.304,47.4
13641,13.8,0.304,47.8
13661,13.9,0.304,48.2
13682,14.0,0.305,48.6
13699,14.1,0.304,49.2
13719,14.2,0.305,49.6
13736,14.3,0.304,50.0
13752,14.4,0.305,50.4
13778,14.5,0.305,50.8
13802,14.7,0.305,51.3
13819,14.8,0.305,52.0
13841,14.9,0.305,52.5
13853,15.0,0.305,53.0
13878,15.2,0.305,53.5
13899,15.3,0.306,54.1
13918,15.4,0.305,54.8
13940,15.5,0.305,55.3
13990,15.6,0.305,55.7
14016,15.7,0.305,55.9
15452,15.8,0.304,55.7
15483,15.9,0.305,56.1
15518,16.0,0.304,56.7
15535,16.1,0.304,57.1
15599,16.2,0.305,57.7
15615,16.3,0.304,57.9
15636,16.4,0.304,58.3
15656,16.5,0.304,58.7
15677,16.6,0.305,59.0
15697,16.7,0.305,59.5
15715,16.8,0.305,59.9
15733,16.9,0.305,60.4
15750,17.1,0.305,61.1
15772,17.3,0.305,61.9
15792,17.6,0.305,62.8
15805,17.8,0.306,63.9
15836,17.9,0.306,65.0
17488,18.0,0.304,64.7
17512,18.1,0.304,65.1
17531,18.3,0.305,65.7
17553,18.4,0.304,66.3
17573,18.5,0.305,66.9
17593,18.6,0.304,67.4
17611,18.7,0.305,67.9
17627,18.8,0.305,68.4
17645,18.9,0.305,68.8
17665,19.0,0.305,69.3
17692,19.1,0.305,69.8
17713,19.2,0.305,70.4
17727,19.3,0.306,70.9
17753,19.4,0.306,71.4
17773,19.5,0.306,71.9
17794,19.6,0.306,72.4
17811,19.7,0.306,72.9
17831,19.8,0.306,73.3
17852,20.0,0.306,73.8
17870,20.1,0.306,74.3
17887,20.2,0.306,74.9
17912,20.4,0.307,75.6
17920,20.6,0.307,76.2
17953,20.7,0.307,77.0
19409,20.9,0.305,76.8
19415,21.0,0.305,77.4
19449,21.1,0.305,78.0
19490,21.2,0.305,79.0
19511,21.3,0.306,79.3
19522,21.4,0.305,79.7
19547,21.5,0.306,80.2
19568,21.6,0.306,80.7
19588,21.7,0.306,81.1
19628,21.9,0.306,81.9
19639,22.0,0.306,82.4
19671,22.1,0.307,83.0
19687,22.3,0.307,83.7
19703,22.4,0.307,84.4
19728,22.7,0.307,85.3
19747,22.8,0.307,86.3
19828,22.9,0.307,87.4
19881,23.0,0.308,88.0
21426,23.1,0.306,86.9
21433,23.2,0.306,87.4
21465,23.3,0.306,87.9
21505,23.4,0.307,88.8
21526,23.5,0.306,89.2
21545,23.6,0.307,89.6
21564,23.7,0.306,90.0
21575,23.8,0.307,90.5
21601,23.9,0.307,90.9
21623,24.0,0.307,91.4
21644,24.1,0.308,92.0
21665,24.2,0.308,92.6
21686,24.3,0.308,93.1
21705,24.4,0.308,93.7
21726,24.5,0.308,94.3
21742,24.6,0.308,94.8
21763,24.8,0.308,95.4
21782,24.9,0.308,96.0
21793,25.0,0.31,96.6
21825,25.1,0.31,97.1
21841,25.3,0.31,97.8
21862,25.4,0.31,98.7
21882,25.5,0.311,99.5
21906,25.6,0.31,100.1
21943,25.7,0.31,100.6
23377,25.8,0.308,99.8
23395,25.9,0.308,100.2
23434,26.0,0.308,101.1
23483,26.1,0.307,101.7
23499,26.2,0.308,101.9
23541,26.3,0.308,102.5
23560,26.4,0.308,102.8
23587,26.5,0.31,103.6
23619,26.6,0.31,104.0
23636,26.7,0.31,104.5
23652,26.9,0.31,105.1
23676,27.0,0.311,105.9
23701,27.2,0.311,106.7
23722,27.4,0.31,107.6
23739,27.6,0.311,108.6
23755,27.7,0.312,109.7
23772,27.8,0.312,110.8
23835,27.9,0.312,111.3
23854,28.0,0.312,111.5
23867,28.1,0.312,112.0
25396,28.2,0.31,111.7
25412,28.3,0.31,112.1
25437,28.4,0.311,112.6
25453,28.5,0.31,113.2
25478,28.6,0.311,113.7
25498,28.7,0.311,114.3
25519,28.8,0.311,114.9
25528,28.9,0.311,115.5
25543,29.0,0.312,116.1
25577,29.1,0.312,116.7
25596,29.3,0.312,117.3
25616,29.4,0.312,118.0
25626,29.5,0.313,118.8
25658,29.7,0.312,119.6
25699,29.8,0.312,120.9
25736,29.9,0.313,121.5
25752,30.1,0.313,121.8
25777,30.3,0.313,122.5
25797,30.5,0.315,123.6
25816,30.6,0.316,124.9
25832,30.7,0.315,126.0
27392,30.8,0.312,125.0
27415,30.9,0.313,125.3
27431,31.0,0.312,126.0
27452,31.1,0.313,126.6
27492,31.2,0.313,127.5
27528,31.3,0.313,128.1
27555,31.4,0.313,128.4
27565,31.5,0.313,128.9
27595,31.6,0.313,129.3
27611,31.7,0.315,129.9
27633,31.8,0.315,130.5
27643,31.9,0.316,131.3
27673,32.1,0.316,132.2
27694,32.3,0.316,133.3
27701,32.5,0.317,134.5
27734,32.6,0.317,135.7
27769,32.7,0.317,136.8
27787,32.8,0.317,137.0
27812,32.9,0.317,137.4
27835,33.0,0.317,138.2
29567,33.1,0.315,137.2
29590,33.2,0.315,137.7
29631,33.3,0.315,138.6
29652,33.4,0.316,139.1
29659,33.5,0.316,139.6
29685,33.6,0.316,140.1
29708,33.7,0.316,140.7
29739,33.8,0.317,141.7
29770,33.9,0.317,142.3
29778,34.0,0.317,142.9
29807,34.1,0.317,143.5
29827,34.3,0.318,144.2
29848,34.4,0.318,145.1
29868,34.6,0.318,146.1
29886,34.7,0.319,147.1
29903,34.8,0.319,148.0
29919,34.9,0.319,148.6
29951,35.0,0.319,149.1
29968,35.2,0.319,149.8
29983,35.4,0.321,150.9
30002,35.5,0.322,152.2
30028,35.6,0.321,153.3
31539,35.7,0.318,152.2
31565,35.8,0.318,152.7
31606,35.9,0.318,153.4
31647,36.0,0.319,154.1
31678,36.1,0.319,154.8
31696,36.2,0.319,155.2
31745,36.3,0.321,156.2
31766,36.5,0.321,156.8
31786,36.6,0.321,157.6
31802,36.7,0.321,158.6
31826,36.9,0.322,159.5
31847,37.1,0.322,160.6
31867,37.3,0.323,161.9
31870,37.5,0.324,163.3
31904,37.6,0.324,164.8
31936,37.7,0.324,166.3
31971,37.9,0.324,166.7
32022,38.0,0.324,168.2
33648,38.1,0.322,166.3
33682,38.2,0.322,166.9
33697,38.3,0.323,167.5
33718,38.4,0.323,168.3
33743,38.5,0.323,169.1
33759,38.6,0.323,169.9
33780,38.7,0.324,170.7
33800,38.8,0.324,171.4
33821,38.9,0.324,172.1
33841,39.0,0.324,172.7
33862,39.1,0.324,173.3
33882,39.2,0.326,174.1
33888,39.3,0.326,175.1
33920,39.5,0.327,176.1
33938,39.6,0.327,177.1
33960,39.7,0.327,177.9
33973,39.8,0.328,178.5
34001,39.9,0.328,179.5
34022,40.0,0.328,180.4
34042,40.1,0.328,181.2
34062,40.2,0.328,181.9
34196,40.3,0.328,182.5
34239,40.4,0.328,183.3
34281,40.5,0.329,184.0
36057,40.3,0.324,181.1
36071,40.2,0.324,179.7
36097,40.1,0.324,178.1
36135,40.0,0.323,176.5
36154,39.9,0.323,176.2
36170,39.7,0.323,175.5
36197,39.6,0.322,174.2
36217,39.5,0.322,173.2
36237,39.4,0.322,172.4
36258,39.3,0.321,171.7
36273,39.2,0.321,170.9
36295,39.1,0.319,170.2
36313,39.0,0.319,169.2
36335,38.8,0.318,168.1
36346,38.7,0.318,167.2
36377,38.6,0.318,166.2
36395,38.4,0.317,165.3
36418,38.1,0.316,164.0
36435,37.8,0.316,162.0
36454,37.7,0.315,160.0
37881,37.6,0.313,158.2
37929,37.5,0.313,157.7
37947,37.4,0.312,157.0
37974,37.3,0.312,156.3
37994,37.2,0.312,155.6
38015,37.1,0.311,154.9
38204,36.9,0.311,154.0
38232,36.8,0.31,153.1
38253,36.6,0.31,152.1
38273,36.5,0.31,151.1
38292,36.4,0.308,150.2
38300,36.3,0.308,149.6
38332,36.2,0.31,149.0
38351,36.1,0.308,148.2
38368,36.0,0.308,147.4
38379,35.9,0.307,146.6
38413,35.7,0.307,145.8
38433,35.6,0.306,144.9
38453,35.5,0.306,144.1
38501,35.4,0.306,142.9
38528,35.3,0.306,142.6
38551,35.1,0.305,142.0
39969,35.0,0.305,140.1
40082,34.9,0.305,139.1
40127,34.8,0.304,138.7
40149,34.7,0.304,138.2
40187,34.6,0.302,137.4
40227,34.5,0.304,136.7
40247,34.4,0.302,136.3
40266,34.3,0.302,135.8
40298,34.2,0.301,134.8
40329,34.1,0.301,134.3
40349,34.0,0.301,133.7
40370,33.8,0.3,133.0
40381,33.7,0.3,132.2
40402,33.5,0.3,131.3
40428,33.3,0.299,130.4
40448,33.1,0.299,129.4
40468,32.9,0.299,128.2
40489,32.8,0.297,126.9
40739,32.7,0.3,126.6
42127,32.6,0.301,127.2
42133,32.4,0.302,126.6
42225,32.3,0.301,125.3
42265,32.2,0.301,124.8
42276,32.1,0.301,124.4
42302,32.0,0.301,123.9
42325,31.9,0.3,123.4
42345,31.7,0.301,122.7
42366,31.6,0.3,122.0
42386,31.5,0.3,121.3
42405,31.4,0.3,120.5
42426,31.3,0.3,120.0
42442,31.2,0.3,119.6
42463,31.1,0.3,119.1
42478,31.0,0.3,118.6
42504,30.9,0.3,118.1
42526,30.8,0.299,117.5
42544,30.6,0.299,116.8
42564,30.5,0.299,116.0
42585,30.4,0.299,115.5
42958,30.3,0.301,115.4
44140,30.2,0.304,115.7
44199,30.1,0.302,115.2
44240,30.0,0.302,114.6
44257,29.9,0.301,114.3
44302,29.8,0.301,113.5
44322,29.7,0.301,113.0
44340,29.6,0.301,112.6
44360,29.5,0.301,112.1
44400,29.4,0.301,111.2
44421,29.3,0.301,110.9
44442,29.2,0.301,110.5
44461,29.1,0.301,110.0
44468,29.0,0.301,109.5
44495,28.8,0.3,108.8
44520,28.7,0.3,108.0
44537,28.5,0.3,107.3
44555,28.4,0.299,106.5
44581,28.2,0.3,105.8
44601,28.1,0.299,105.0
44621,28.0,0.299,104.1
44638,27.9,0.299,103.5
46095,27.7,0.301,104.6
46117,27.5,0.301,103.6
46137,27.4,0.3,102.3
46157,27.3,0.301,101.6
46199,27.2,0.301,101.1
46229,27.1,0.301,100.8
46243,27.0,0.301,100.5
46275,26.8,0.3,99.9
46295,26.7,0.301,99.1
46314,26.6,0.3,98.3
46338,26.5,0.3,97.6
46358,26.4,0.3,97.1
46378,26.2,0.3,96.5
46395,26.1,0.3,95.9
46415,26.0,0.299,95.3
46429,25.9,0.299,94.7
46455,25.7,0.299,94.1
46477,25.5,0.3,93.2
46497,25.4,0.299,92.3
46576,25.3,0.3,91.6
47934,25.2,0.302,92.3
47993,25.1,0.302,91.8
48033,25.0,0.302,91.5
48095,24.9,0.302,90.8
48132,24.8,0.301,90.3
48152,24.7,0.301,90.0
48189,24.6,0.301,89.3
48207,24.5,0.301,88.9
48223,24.4,0.301,88.5
48255,24.3,0.3,88.0
48277,24.2,0.301,87.3
48310,24.1,0.301,86.9
48324,24.0,0.301,86.5
48353,23.9,0.3,86.0
48373,23.7,0.301,85.4
48393,23.6,0.3,84.8
48399,23.4,0.3,84.1
48426,23.3,0.3,83.4
48451,23.1,0.3,82.6
48465,23.0,0.3,81.9
48485,22.9,0.299,81.3
50131,22.8,0.302,81.7
50151,22.7,0.302,81.6
50171,22.6,0.301,81.0
50178,22.5,0.301,80.3
50228,22.4,0.302,79.5
50246,22.3,0.301,79.1
50265,22.2,0.301,78.8
50300,22.1,0.301,78.2
50331,22.0,0.301,77.8
50347,21.9,0.301,77.3
50368,21.8,0.301,76.8
50386,21.6,0.301,76.2
50403,21.5,0.3,75.6
50417,21.4,0.301,75.1
50449,21.3,0.301,74.6
50484,21.2,0.3,73.8
50507,21.1,0.3,73.4
50525,21.0,0.3,73.0
50548,20.8,0.3,72.5
50569,20.7,0.3,71.9
50588,20.6,0.299,71.3
50607,20.5,0.3,70.6
50621,20.4,0.3,70.1
50706,20.2,0.3,69.8
50744,20.1,0.3,68.8
50908,20.2,0.3,69.1
52182,20.1,0.302,69.7
52237,20.0,0.302,69.1
52278,19.9,0.301,68.7
52305,19.8,0.302,68.4
52346,19.7,0.301,67.7
52364,19.6,0.301,67.3
52380,19.5,0.301,66.9
52396,19.3,0.301,66.4
52423,19.2,0.301,65.8
52445,19.0,0.301,65.3
52466,18.9,0.3,64.5
52486,18.8,0.301,63.9
52502,18.7,0.301,63.4
52526,18.6,0.3,62.8
52543,18.4,0.301,62.3
52564,18.2,0.3,61.6
52584,18.1,0.3,60.8
52604,18.0,0.3,60.3
52621,17.9,0.3,59.7
52665,17.8,0.301,59.0
54242,17.7,0.302,59.8
54258,17.5,0.302,59.1
54283,17.4,0.302,58.3
54300,17.3,0.301,57.6
54320,17.2,0.301,57.1
54341,17.1,0.302,56.7
54383,17.0,0.301,56.1
54400,16.8,0.301,55.7
54417,16.7,0.301,55.2
54432,16.6,0.301,54.5
54460,16.4,0.301,53.9
54481,16.3,0.301,53.4
54500,16.2,0.3,52.9
54521,16.1,0.3,52.3
54541,16.0,0.301,51.8
54561,15.9,0.3,51.4
54575,15.8,0.3,50.9
54592,15.6,0.3,50.4
54612,15.4,0.3,49.8
54634,15.3,0.3,49.0
54701,15.2,0.3,48.3
54742,15.1,0.3,47.9
54771,15.0,0.301,47.5
54918,15.1,0.301,47.7
56377,15.0,0.302,48.3
56479,14.9,0.302,47.6
56514,14.8,0.302,47.3
56558,14.7,0.302,46.8
56575,14.6,0.302,46.5
56591,14.5,0.302,46.2
56618,14.4,0.301,45.8
56635,14.3,0.301,45.4
56655,14.2,0.302,45.0
56675,14.1,0.301,44.5
56696,14.0,0.301,44.0
56716,13.9,0.301,43.6
56734,13.8,0.301,43.1
56749,13.7,0.301,42.7
56776,13.6,0.301,42.4
56791,13.5,0.301,41.9
56815,13.3,0.301,41.4
56834,13.2,0.301,40.8
56876,13.1,0.301,40.0
56897,13.0,0.301,39.6
56937,12.9,0.301,39.1
58647,12.8,0.302,39.5
58674,12.7,0.302,39.2
58684,12.5,0.302,38.5
58712,12.4,0.302,37.8
58730,12.3,0.301,37.1
58753,12.2,0.302,36.8
58793,12.1,0.302,36.4
58813,12.0,0.301,36.0
58833,11.9,0.301,35.7
58850,11.7,0.302,35.2
58869,11.6,0.301,34.5
58885,11.5,0.301,33.9
58912,11.4,0.301,33.4
58933,11.3,0.301,33.0
58952,11.2,0.301,32.6
58968,11.1,0.302,32.2
58993,11.0,0.301,31.9
59031,10.9,0.301,31.4
59051,10.8,0.301,31.1
59072,10.7,0.301,30.7
59092,10.6,0.301,30.4
59113,10.5,0.301,30.0
59126,10.3,0.301,29.6
59140,10.2,0.301,29.0
59192,10.3,0.301,28.4
59298,10.2,0.301,28.9
59493,10.3,0.301,29.0
60550,10.2,0.304,29.5
60665,10.1,0.302,28.6
60723,10.0,0.302,28.3
60787,9.9,0.301,27.9
60808,9.8,0.302,27.7
60834,9.7,0.302,27.1
60868,9.6,0.302,26.8
60889,9.5,0.301,26.4
60909,9.4,0.301,26.0
60926,9.3,0.301,25.6
60946,9.2,0.302,25.2
60968,9.1,0.302,24.8
60988,9.0,0.301,24.5
61009,8.9,0.301,24.2
61029,8.8,0.302,23.8
61049,8.7,0.302,23.4
61087,8.6,0.301,22.7
61104,8.4,0.301,22.4
61122,8.3,0.301,21.9
61148,8.2,0.301,21.5
61168,8.1,0.301,21.1
61189,8.0,0.301,20.7
61209,7.9,0.301,20.3
61246,7.8,0.301,19.8
62799,7.6,0.302,20.1
62822,7.5,0.301,19.6
62842,7.4,0.302,18.9
62884,7.3,0.302,18.3
62925,7.2,0.302,17.9
62946,7.1,0.302,17.7
62962,7.0,0.302,17.4
62981,6.9,0.302,17.0
62998,6.8,0.302,16.6
63018,6.7,0.302,16.2
63045,6.6,0.302,15.8
63062,6.5,0.301,15.4
63077,6.4,0.302,15.1
63103,6.3,0.302,14.8
63122,6.2,0.301,14.4
63142,6.0,0.302,13.9
63163,5.9,0.301,13.4
63183,5.7,0.301,12.9
63204,5.6,0.301,12.3
63279,5.5,0.301,12.0
63303,5.4,0.301,11.8
64621,5.3,0.302,11.8
64719,5.2,0.302,11.4
64761,5.1,0.302,11.1
64822,5.0,0.302,10.6
64842,4.9,0.302,10.5
64882,4.8,0.302,10.0
64898,4.7,0.302,9.8
64920,4.6,0.302,9.5
64940,4.5,0.302,9.2
64961,4.4,0.302,8.8
64981,4.3,0.302,8.5
64993,4.2,0.302,8.1
65011,4.1,0.302,7.8
65027,4.0,0.302,7.5
65060,3.9,0.302,7.3
65078,3.8,0.301,7.0
65101,3.7,0.302,6.8
65120,3.5,0.302,6.4
65141,3.4,0.302,6.0
65158,3.3,0.301,5.6
65178,3.1,0.302,5.2
65199,3.0,0.302,4.9
66717,2.9,0.302,5.2
66735,2.8,0.302,4.9
66755,2.7,0.302,4.5
66797,2.6,0.302,4.1
66833,2.4,0.302,3.7
66858,2.3,0.302,3.4
66871,2.2,0.304,3.1
66898,2.1,0.302,2.8
66915,1.9,0.302,2.5
66935,1.8,0.302,2.2
66956,1.7,0.302,1.9
66976,1.6,0.302,1.7
66990,1.5,0.302,1.5
67017,1.4,0.302,1.3
67035,1.3,0.302,1.1
67051,1.2,0.302,0.9
67075,1.0,0.302,0.7
67095,0.9,0.302,0.4
67115,0.7,0.302,0.2
67136,0.6,0.301,0.1
67156,0.5,0.302,0.3
67231,0.4,0.302,0.3
67815,0.3,0.302,0.3
67888,0.2,0.302,0.5
67996,0.1,0.302,0.8
69569,0.0,0.302,0.0
69651,0.1,0.302,0.0
69691,0.0,0.304,0.1
