Time,Length,Pressure,Force
1,0.0,0.8,0.0
2069,0.1,0.8,0.0
2092,0.2,0.798,0.1
2110,0.4,0.798,0.3
2129,0.5,0.8,0.5
2143,0.7,0.8,0.8
2171,0.9,0.798,1.2
2191,1.1,0.798,1.6
2210,1.3,0.798,2.1
2232,1.6,0.8,2.5
2252,1.9,0.8,3.1
2272,2.2,0.798,3.8
2291,2.4,0.8,4.6
2306,2.5,0.8,5.3
2322,2.6,0.801,5.6
2348,2.8,0.8,6.1
2364,3.1,0.8,6.7
2391,3.3,0.798,7.5
2408,3.5,0.8,8.2
2433,3.7,0.801,8.9
2453,4.0,0.801,9.7
2470,4.2,0.802,10.6
2486,4.4,0.801,11.6
2501,4.7,0.801,12.6
2527,5.0,0.802,13.7
2552,5.2,0.803,14.9
2572,5.4,0.803,15.9
2592,5.6,0.802,16.9
2609,5.8,0.803,17.9
2630,5.9,0.802,18.9
2650,6.2,0.804,20.0
2671,6.4,0.803,21.2
2689,6.8,0.804,22.7
2709,7.0,0.806,24.6
2726,7.2,0.804,26.1
2739,7.3,0.806,26.6
2773,7.4,0.806,27.2
2788,7.6,0.807,27.8
2803,7.8,0.806,29.0
2829,8.0,0.808,30.6
2848,8.2,0.808,32.2
2871,8.5,0.809,33.7
2891,8.8,0.809,35.4
2906,9.1,0.811,37.4
2923,9.5,0.811,39.5
2948,9.8,0.812,42.0
2955,10.0,0.812,44.5
2990,10.2,0.813,46.3
3009,10.4,0.813,47.8
3024,10.6,0.813,49.4
3051,10.8,0.815,51.0
3071,11.1,0.815,52.6
3088,11.5,0.817,54.9
3109,11.8,0.818,57.7
3125,12.0,0.819,60.5
3168,12.2,0.819,63.2
3189,12.4,0.82,64.1
3208,12.7,0.82,65.7
3231,12.9,0.82,68.1
3246,13.2,0.823,70.4
3264,13.5,0.823,72.5
3288,13.8,0.825,75.0
3306,14.2,0.828,77.9
3329,14.5,0.828,81.2
3350,14.8,0.829,84.4
3368,15.0,0.83,87.1
3384,15.3,0.83,89.2
3400,15.5,0.833,91.4
3426,15.7,0.833,93.7
3448,16.1,0.834,95.9
3469,16.4,0.836,98.8
3489,16.7,0.836,102.1
3510,16.8,0.836,105.0
3530,16.9,0.834,106.5
3551,17.1,0.835,107.1
3569,17.3,0.835,108.2
3586,17.5,0.835,110.0
3607,17.7,0.836,112.0
3616,18.0,0.836,114.2
3649,18.3,0.837,116.5
3669,18.6,0.837,119.5
3683,19.0,0.837,122.7
3699,19.3,0.837,126.2
3727,19.5,0.837,129.5
3748,19.7,0.837,131.6
3769,19.9,0.836,133.3
3788,20.1,0.837,135.2
3807,20.3,0.835,137.2
3826,20.5,0.835,138.8
3847,20.7,0.836,140.2
3868,21.0,0.836,142.4
3875,21.2,0.836,145.1
3907,21.5,0.837,147.8
3923,21.8,0.837,150.9
3945,22.0,0.836,154.0
3968,22.1,0.835,155.9
3989,22.3,0.835,157.2
4010,22.6,0.837,159.1
4030,22.8,0.836,161.6
4040,23.0,0.836,163.8
4060,23.3,0.836,166.1
4086,23.6,0.837,168.8
4093,24.0,0.839,172.3
4128,24.3,0.837,176.5
4146,24.4,0.836,179.6
4169,24.5,0.836,181.0
4187,24.7,0.835,181.8
4206,25.0,0.836,183.7
4227,25.2,0.836,186.3
4233,25.4,0.836,188.7
4266,25.6,0.837,190.8
4280,25.9,0.839,193.7
4298,26.2,0.837,197.0
4324,26.4,0.837,200.2
4348,26.5,0.837,202.6
4364,26.7,0.836,204.2
4386,26.9,0.835,205.5
4406,27.0,0.835,207.1
4427,27.1,0.835,208.6
4448,27.3,0.836,209.8
4467,27.4,0.836,211.5
4481,27.6,0.835,213.4
4497,27.8,0.835,215.3
4518,27.9,0.836,216.9
4545,28.1,0.836,218.9
4565,28.3,0.836,221.1
4581,28.5,0.837,223.3
4608,28.7,0.835,225.4
4717,28.9,0.835,226.2
4746,29.1,0.836,228.0
4763,29.2,0.836,231.3
4822,29.3,0.831,232.7
4919,29.4,0.833,233.1
5287,29.3,0.829,232.3
5303,29.1,0.828,230.3
5322,28.9,0.825,226.4
5344,28.7,0.823,222.8
5352,28.6,0.822,219.6
5384,28.4,0.819,217.0
5401,28.3,0.818,214.9
5420,28.1,0.817,212.8
5441,27.8,0.814,210.2
5459,27.5,0.811,206.7
5484,27.1,0.808,202.4
5504,26.7,0.803,197.7
5525,26.2,0.798,192.2
5546,26.0,0.798,185.9
5566,25.8,0.796,181.4
5586,25.6,0.795,178.6
5605,25.4,0.795,176.3
5625,25.1,0.792,174.2
5636,24.7,0.792,171.0
5653,24.4,0.791,167.0
5683,24.1,0.791,163.4
5705,23.9,0.792,159.8
5725,23.7,0.793,157.7
5746,23.4,0.791,156.2
5767,23.2,0.792,153.8
5773,22.9,0.792,151.4
5799,22.7,0.793,148.9
5820,22.4,0.792,146.6
5846,22.2,0.793,144.4
5860,22.0,0.793,142.1
5881,21.8,0.792,139.9
5893,21.3,0.792,137.8
5926,20.9,0.791,134.4
5943,20.8,0.792,129.8
5963,20.6,0.793,127.6
5980,20.4,0.793,126.5
5997,20.1,0.793,124.9
6016,19.9,0.792,122.7
6043,19.5,0.792,120.1
6063,19.1,0.792,117.1
6080,18.8,0.792,113.2
6095,18.7,0.793,110.0
6121,18.5,0.793,108.7
6143,18.2,0.793,107.2
6163,17.9,0.795,104.9
6184,17.7,0.793,102.4
6204,17.3,0.792,99.8
6224,17.0,0.792,97.1
6227,16.6,0.792,94.2
6259,16.2,0.792,90.7
6274,16.1,0.793,87.1
6304,15.9,0.795,85.1
6313,15.7,0.795,84.1
6339,15.5,0.793,82.6
6365,15.2,0.792,80.8
6385,15.0,0.795,78.5
6401,14.7,0.793,76.1
6418,14.3,0.793,73.7
6432,14.0,0.792,70.8
6458,13.8,0.793,67.7
6480,13.6,0.793,65.9
6497,13.4,0.795,64.7
6523,13.1,0.795,62.7
6545,12.9,0.795,60.8
6562,12.6,0.796,58.6
6580,12.2,0.793,56.2
6602,11.9,0.795,53.5
6623,11.5,0.795,50.5
6644,11.3,0.793,47.5
6652,11.1,0.795,45.6
6684,10.9,0.793,44.2
6700,10.6,0.793,42.1
6714,10.3,0.795,40.3
6741,10.0,0.795,37.8
6763,9.7,0.795,35.5
6779,9.5,0.795,33.4
6804,9.3,0.796,31.5
6824,9.0,0.796,29.9
6844,8.8,0.796,28.3
6860,8.5,0.795,26.3
6877,8.3,0.796,24.4
6901,8.0,0.795,22.7
6922,7.8,0.796,21.0
6942,7.6,0.796,19.5
6962,7.3,0.796,18.0
6983,7.0,0.796,16.3
7002,6.6,0.796,14.4
7008,6.4,0.797,12.2
7040,6.2,0.796,10.9
7060,6.0,0.797,10.3
7081,5.7,0.796,9.3
7102,5.4,0.797,8.2
7122,5.1,0.797,7.1
7135,4.8,0.798,6.3
7149,4.5,0.798,5.4
7175,4.4,0.798,4.7
7199,4.2,0.798,4.2
7218,4.0,0.798,3.8
7239,3.7,0.797,3.3
7261,3.5,0.798,2.8
7282,3.3,0.8,2.5
7303,3.1,0.797,2.1
7317,2.8,0.798,1.7
7333,2.6,0.798,1.4
7358,2.3,0.798,1.1
7380,2.1,0.798,0.8
7439,2.0,0.8,0.7
7462,1.8,0.797,0.6
7483,1.7,0.798,0.3
7499,1.5,0.797,0.2
7520,1.3,0.798,0.1
7540,1.2,0.798,0.0
7547,1.1,0.8,0.1
7580,0.9,0.798,0.2
7597,0.7,0.798,0.3
7623,0.6,0.8,0.3
7630,0.4,0.8,0.4
7657,0.3,0.798,0.4
7680,0.2,0.798,0.4
7700,0.1,0.798,0.5
