Time,Length,Pressure,Force
1,0.0,0.401,0.0
3150,0.1,0.4,0.1
3165,0.3,0.4,0.4
3188,0.5,0.401,0.8
3207,0.7,0.401,1.3
3229,1.0,0.401,1.9
3246,1.4,0.401,2.7
3265,1.6,0.402,3.5
3292,1.7,0.402,4.2
3308,1.8,0.401,4.6
3328,2.0,0.402,4.9
3349,2.3,0.402,5.4
3369,2.6,0.404,6.1
3387,2.9,0.405,6.8
3397,3.2,0.404,7.6
3431,3.6,0.405,8.6
3452,4.0,0.406,9.8
3466,4.3,0.406,11.2
3482,4.5,0.407,12.3
3508,4.8,0.407,13.2
3529,5.1,0.409,14.1
3549,5.4,0.41,15.2
3568,5.7,0.411,16.3
3585,6.0,0.411,17.5
3611,6.4,0.412,18.9
3621,6.7,0.412,20.6
3633,6.8,0.412,21.9
3666,7.0,0.413,22.6
3682,7.2,0.415,23.2
3697,7.5,0.415,24.2
3730,7.8,0.416,25.5
3750,8.1,0.417,26.8
3770,8.5,0.42,28.3
3791,9.0,0.42,30.1
3808,9.2,0.421,32.4
3827,9.5,0.422,34.2
3848,9.7,0.422,35.4
3871,10.1,0.423,37.0
3888,10.4,0.426,38.7
3908,10.8,0.426,40.5
3931,11.2,0.427,42.7
3950,11.5,0.428,45.1
3968,11.6,0.429,47.3
3988,11.8,0.429,48.2
4009,12.1,0.431,48.8
4029,12.4,0.432,50.3
4050,12.7,0.434,52.4
4066,13.1,0.435,54.6
4089,13.6,0.438,56.8
4093,14.0,0.439,59.6
4125,14.2,0.44,62.7
4140,14.5,0.442,64.6
4168,14.7,0.443,66.1
4179,15.0,0.444,67.8
4209,15.3,0.445,69.8
4227,15.7,0.446,71.8
4240,16.1,0.448,74.1
4266,16.3,0.446,76.9
4287,16.4,0.445,78.9
4305,16.6,0.445,79.4
4322,16.9,0.445,79.7
4347,17.2,0.446,81.1
4368,17.5,0.448,83.4
4378,17.9,0.448,85.6
4410,18.4,0.449,87.9
4426,18.8,0.45,91.1
4444,19.0,0.448,94.4
4465,19.1,0.448,95.7
4478,19.3,0.445,96.0
4505,19.6,0.446,96.7
4523,20.0,0.446,98.6
4539,20.2,0.448,100.8
4565,20.6,0.448,102.8
4572,21.0,0.449,105.1
4606,21.2,0.449,108.0
4627,21.4,0.448,109.9
4647,21.5,0.446,110.3
4665,21.8,0.446,110.7
4689,22.1,0.446,112.2
4709,22.4,0.448,114.4
4724,22.7,0.448,116.7
4742,23.0,0.448,119.1
4767,23.3,0.449,121.4
4774,23.7,0.45,123.7
4807,24.1,0.45,126.9
4828,24.3,0.448,129.8
4849,24.5,0.448,131.2
4869,24.8,0.449,132.6
4889,25.0,0.448,134.3
4897,25.2,0.448,135.8
4924,25.5,0.448,137.4
4947,25.7,0.448,139.2
4967,25.9,0.446,140.9
4988,26.0,0.446,142.3
5008,26.1,0.445,143.0
5019,26.2,0.445,143.3
5049,26.4,0.444,143.9
5066,26.6,0.446,145.4
5086,26.9,0.448,147.5
5101,27.1,0.448,149.9
5118,27.4,0.449,152.4
5133,27.7,0.449,155.1
5167,28.0,0.448,157.5
5173,28.2,0.45,159.8
5205,28.5,0.449,162.4
5225,28.6,0.448,164.7
5237,28.7,0.448,165.6
5266,28.9,0.446,166.0
5283,29.0,0.445,166.7
5306,29.1,0.445,167.5
5324,29.2,0.445,168.5
5780,29.1,0.44,164.3
5796,29.0,0.438,164.1
5827,28.8,0.435,161.0
5847,28.6,0.433,157.2
5863,28.4,0.433,153.6
5885,28.3,0.431,151.0
5905,28.2,0.431,149.5
5926,28.0,0.427,147.7
5946,27.8,0.424,145.4
5966,27.5,0.422,142.4
5986,27.1,0.421,138.8
5990,26.8,0.417,134.8
6023,26.3,0.413,130.4
6040,25.9,0.409,125.3
6065,25.7,0.407,119.8
6082,25.5,0.406,116.4
6098,25.2,0.404,114.9
6125,25.0,0.402,112.5
6144,24.6,0.4,109.8
6167,24.3,0.398,106.6
6183,24.0,0.395,103.4
6204,23.6,0.393,100.0
6224,23.4,0.391,96.7
6243,23.3,0.391,94.5
6264,23.0,0.393,93.5
6275,22.7,0.391,92.0
6303,22.5,0.391,90.2
6310,22.2,0.391,88.5
6339,22.1,0.391,87.0
6363,22.0,0.394,86.3
6383,21.8,0.394,85.9
6404,21.7,0.394,85.5
6424,21.5,0.394,84.8
6442,21.4,0.394,84.0
6465,21.2,0.394,83.4
6481,20.8,0.391,82.3
6490,20.5,0.393,79.8
6523,20.3,0.393,77.2
6543,20.1,0.393,76.3
6561,19.8,0.393,75.4
6584,19.4,0.393,74.0
6605,19.0,0.391,72.0
6621,18.6,0.391,69.6
6641,18.5,0.393,67.0
6660,18.3,0.394,66.0
6675,18.1,0.394,66.0
6701,17.8,0.393,64.9
6717,17.6,0.394,63.6
6735,17.3,0.393,62.3
6761,17.0,0.394,61.0
6783,16.7,0.393,59.6
6787,16.3,0.393,58.0
6821,15.8,0.391,56.0
6843,15.6,0.393,53.2
6863,15.4,0.393,51.8
6884,15.1,0.394,51.1
6904,14.7,0.394,49.9
6924,14.4,0.393,48.3
6935,14.0,0.393,46.4
6962,13.8,0.394,44.5
6973,13.7,0.394,43.2
7001,13.5,0.395,42.9
7023,13.2,0.394,42.6
7042,12.9,0.394,41.3
7064,12.6,0.395,39.9
7084,12.4,0.394,38.7
7105,12.1,0.395,37.4
7119,11.9,0.395,36.3
7141,11.7,0.394,35.3
7163,11.4,0.395,34.3
7184,11.0,0.394,33.1
7204,10.7,0.395,31.4
7221,10.4,0.394,29.6
7237,10.2,0.395,28.6
7264,9.9,0.395,27.7
7281,9.6,0.395,26.4
7301,9.2,0.394,25.1
7322,8.9,0.394,23.6
7343,8.7,0.394,22.2
7362,8.5,0.396,21.2
7380,8.2,0.395,20.5
7404,7.9,0.395,19.5
7419,7.6,0.395,18.3
7430,7.3,0.395,17.1
7459,7.0,0.395,15.9
7482,6.6,0.395,14.6
7501,6.3,0.395,13.2
7522,6.1,0.395,11.9
7543,6.0,0.395,11.2
7563,5.7,0.396,11.0
7581,5.5,0.396,10.3
7598,5.3,0.396,9.6
7615,5.0,0.396,8.8
7631,4.7,0.396,8.0
7662,4.4,0.396,7.2
7679,4.1,0.396,6.4
7702,3.9,0.398,5.7
7723,3.7,0.396,5.1
7740,3.4,0.396,4.7
7748,3.1,0.398,4.1
7781,2.8,0.398,3.5
7797,2.5,0.398,3.0
7816,2.2,0.398,2.4
7836,1.9,0.396,1.9
7861,1.6,0.398,1.4
7883,1.4,0.398,1.0
7893,1.2,0.399,0.7
7919,1.0,0.398,0.5
7940,0.7,0.398,0.3
7961,0.5,0.399,0.0
7981,0.2,0.398,0.2
7998,0.0,0.399,0.5
8017,-0.1,0.399,0.7
8039,-0.3,0.399,0.9
8046,-0.5,0.4,1.0
