Time,Length,Pressure,Force
1,0.0,0.797,0.0
3515,0.1,0.795,0.1
3536,0.2,0.793,0.5
3577,0.3,0.796,1.3
3595,0.4,0.795,1.7
3607,0.5,0.796,2.1
3632,0.6,0.796,2.5
3653,0.7,0.796,2.9
3671,0.8,0.797,3.3
3689,0.9,0.796,3.7
3717,1.1,0.796,4.1
3734,1.2,0.796,4.5
3757,1.3,0.796,4.9
3777,1.4,0.797,5.3
3791,1.5,0.797,5.6
3820,1.6,0.796,6.0
5015,1.7,0.796,5.9
5056,1.8,0.796,6.5
5073,1.9,0.796,6.9
5093,2.0,0.796,7.2
5109,2.1,0.797,7.6
5127,2.3,0.797,7.9
5142,2.4,0.796,8.3
5191,2.5,0.796,8.8
5208,2.6,0.796,8.9
5225,2.7,0.796,9.2
5253,2.8,0.797,9.5
5273,2.9,0.797,9.8
5291,3.0,0.797,10.1
5314,3.1,0.797,10.4
5333,3.2,0.797,10.7
5346,3.3,0.797,11.0
5372,3.4,0.797,11.3
5396,3.5,0.797,11.7
5412,3.6,0.797,12.0
5430,3.7,0.797,12.4
5441,3.8,0.798,12.7
5474,3.9,0.798,13.1
5491,4.0,0.798,13.4
5513,4.2,0.798,13.8
5534,4.3,0.798,14.2
5555,4.4,0.798,14.6
5557,4.5,0.798,14.9
5613,4.6,0.798,15.5
5641,4.7,0.798,15.8
6890,4.8,0.8,15.4
6903,4.9,0.8,15.7
6930,5.0,0.798,16.4
6952,5.1,0.8,16.9
6986,5.2,0.798,17.4
7010,5.3,0.798,17.7
7030,5.4,0.798,18.0
7071,5.5,0.8,18.6
7091,5.6,0.8,18.9
7112,5.7,0.8,19.2
7126,5.8,0.798,19.5
7137,5.9,0.798,19.8
7191,6.0,0.8,20.4
7206,6.1,0.801,20.7
7231,6.2,0.801,21.1
7250,6.3,0.801,21.5
7272,6.4,0.801,21.8
7288,6.5,0.801,22.1
8424,6.6,0.801,22.2
8467,6.7,0.8,22.6
8499,6.8,0.801,23.2
8525,6.9,0.801,23.5
8545,7.0,0.801,23.9
8566,7.2,0.801,24.3
8586,7.3,0.801,24.9
8607,7.4,0.802,25.5
8627,7.5,0.802,26.0
8645,7.6,0.801,26.3
8664,7.7,0.802,26.7
8681,7.8,0.801,27.0
8703,7.9,0.801,27.4
8712,8.0,0.802,27.8
8745,8.1,0.802,28.2
8761,8.2,0.803,28.6
8787,8.3,0.802,29.0
8803,8.4,0.803,29.4
8828,8.5,0.803,29.8
8847,8.6,0.804,30.2
8850,8.7,0.803,30.6
8882,8.9,0.802,31.1
8899,9.0,0.804,31.5
8915,9.1,0.804,32.0
8946,9.2,0.803,32.5
8965,9.3,0.803,33.0
8987,9.4,0.804,33.4
9001,9.5,0.806,33.8
10198,9.6,0.803,33.7
10263,9.7,0.803,33.8
10281,9.9,0.803,34.4
10306,10.0,0.804,35.2
10308,10.1,0.804,35.9
10364,10.2,0.804,36.4
10406,10.3,0.804,36.8
10418,10.4,0.804,37.1
10451,10.5,0.806,37.5
10480,10.6,0.804,37.8
10503,10.7,0.806,38.2
10523,10.8,0.806,38.6
10544,10.9,0.806,39.0
10564,11.0,0.807,39.4
10584,11.1,0.807,40.0
10597,11.3,0.804,40.4
10622,11.4,0.807,41.0
10643,11.5,0.808,41.5
10659,11.6,0.807,42.1
10676,11.7,0.807,42.5
11760,11.8,0.806,42.4
11781,11.9,0.807,42.6
11801,12.0,0.807,43.2
11821,12.1,0.807,43.8
11842,12.2,0.807,44.4
11863,12.3,0.808,44.9
11880,12.4,0.808,45.3
11900,12.5,0.807,45.6
11941,12.6,0.808,46.2
11961,12.7,0.808,46.5
11982,12.8,0.808,46.9
12002,12.9,0.808,47.3
12023,13.0,0.807,47.7
12059,13.1,0.809,48.5
12080,13.2,0.808,48.9
12101,13.3,0.809,49.3
12116,13.5,0.809,49.8
12133,13.6,0.809,50.2
12150,13.7,0.809,50.7
12182,13.8,0.811,51.2
12193,13.9,0.811,51.7
12217,14.0,0.811,52.2
12233,14.1,0.812,52.6
12259,14.2,0.811,53.1
12276,14.3,0.812,53.5
12301,14.4,0.812,53.9
12342,14.5,0.811,54.4
13497,14.6,0.811,54.2
13518,14.7,0.812,54.5
13535,14.8,0.811,55.1
13557,14.9,0.812,55.7
13616,15.0,0.811,56.2
13652,15.1,0.812,56.8
13674,15.2,0.812,57.2
13696,15.3,0.813,57.5
13710,15.4,0.812,57.8
13739,15.5,0.812,58.2
13759,15.6,0.811,58.7
13772,15.7,0.813,59.1
13796,15.8,0.812,59.6
13814,15.9,0.813,60.1
13837,16.0,0.813,60.5
13858,16.1,0.814,61.0
13875,16.2,0.813,61.5
13917,16.3,0.814,62.2
14017,16.4,0.814,62.6
14096,16.5,0.813,63.1
15133,16.6,0.813,63.0
15176,16.7,0.814,63.5
15191,16.8,0.813,63.9
15208,16.9,0.814,64.4
15233,17.1,0.814,65.0
15246,17.3,0.814,65.8
15272,17.4,0.815,66.6
15294,17.5,0.817,67.3
15335,17.6,0.815,68.0
15353,17.7,0.815,68.3
15374,17.8,0.817,68.8
15392,17.9,0.818,69.3
15412,18.0,0.817,69.7
15432,18.1,0.817,70.2
15453,18.2,0.819,70.7
15470,18.4,0.818,71.2
15496,18.5,0.817,71.7
15513,18.6,0.819,72.3
15533,18.8,0.819,72.9
15553,18.9,0.819,73.6
15574,19.0,0.818,74.2
15594,19.1,0.82,74.8
15612,19.2,0.82,75.2
15630,19.3,0.82,75.7
15654,19.4,0.82,76.1
15711,19.5,0.819,76.7
16807,19.6,0.82,76.5
16831,19.7,0.82,76.8
16851,19.8,0.819,77.4
16893,19.9,0.82,78.1
16930,20.0,0.819,78.5
16970,20.1,0.82,79.0
17004,20.2,0.822,79.6
17019,20.3,0.82,80.0
17051,20.4,0.82,80.5
17073,20.5,0.822,81.0
17089,20.7,0.822,81.6
17109,20.8,0.822,82.1
17130,20.9,0.823,82.7
17141,21.0,0.824,83.3
17167,21.2,0.824,84.0
17190,21.3,0.823,84.6
17207,21.4,0.824,85.2
17232,21.5,0.824,85.7
17271,21.6,0.825,86.5
17308,21.7,0.824,87.0
18569,21.8,0.824,86.9
18587,22.0,0.823,87.4
18609,22.1,0.825,87.9
18629,22.2,0.825,88.6
18649,22.4,0.824,89.4
18670,22.5,0.825,90.1
18682,22.6,0.826,90.6
18705,22.7,0.826,91.1
18720,22.8,0.826,91.7
18768,22.9,0.826,92.6
18788,23.0,0.826,92.9
18809,23.1,0.826,93.2
18845,23.2,0.828,94.0
18867,23.4,0.828,94.5
18887,23.5,0.83,95.1
18905,23.7,0.829,95.7
18925,23.8,0.83,96.5
18937,23.9,0.829,97.3
18968,24.0,0.83,98.0
18990,24.1,0.83,98.5
19005,24.2,0.831,99.0
19022,24.3,0.83,99.4
19088,24.4,0.83,100.1
20424,24.5,0.829,99.5
20443,24.6,0.828,100.0
20465,24.7,0.83,100.7
20484,24.8,0.83,101.2
20524,24.9,0.83,101.9
20537,25.0,0.831,102.3
20564,25.1,0.83,102.7
20604,25.2,0.83,103.4
20624,25.3,0.831,103.7
20645,25.4,0.831,104.2
20665,25.5,0.831,104.7
20685,25.6,0.831,105.2
20695,25.7,0.831,105.6
20714,25.8,0.833,106.2
20740,25.9,0.833,106.8
20762,26.0,0.834,107.4
20784,26.2,0.833,108.0
20804,26.3,0.833,108.7
20825,26.5,0.835,109.5
20845,26.6,0.835,110.2
20866,26.7,0.835,110.9
20902,26.8,0.835,111.8
22103,27.0,0.831,110.9
22123,27.1,0.833,111.6
22139,27.3,0.833,112.5
22159,27.4,0.834,113.6
22179,27.5,0.833,114.4
22193,27.6,0.834,114.9
22220,27.7,0.835,115.3
22239,27.8,0.835,115.9
22261,27.9,0.835,116.5
22267,28.1,0.834,117.1
22299,28.2,0.835,117.6
22320,28.3,0.835,118.2
22340,28.4,0.835,118.8
22361,28.6,0.836,119.5
22381,28.7,0.836,120.1
22402,28.8,0.836,120.8
22419,29.0,0.836,121.4
22436,29.1,0.836,122.1
22451,29.2,0.835,122.7
22478,29.3,0.835,123.3
22521,29.4,0.835,124.0
22540,29.5,0.835,124.1
23715,29.6,0.83,123.1
23755,29.8,0.83,123.8
23779,29.9,0.83,124.4
23792,30.0,0.83,125.0
23818,30.1,0.831,125.7
23836,30.2,0.833,126.2
23880,30.3,0.834,127.1
23896,30.4,0.833,127.6
23935,30.5,0.833,128.2
23951,30.6,0.833,128.5
23999,30.7,0.834,129.2
24018,30.8,0.834,129.7
24036,31.0,0.834,130.2
24056,31.2,0.834,131.0
24076,31.4,0.836,131.9
24097,31.5,0.835,132.9
24118,31.7,0.836,133.9
24137,31.8,0.836,134.7
25953,31.9,0.831,133.3
25973,32.0,0.831,133.7
25993,32.3,0.833,134.7
26003,32.4,0.833,136.1
26034,32.5,0.833,137.1
26075,32.6,0.834,137.9
26091,32.7,0.833,138.4
26113,32.8,0.835,139.0
26122,33.0,0.835,139.6
26153,33.1,0.834,140.2
26170,33.2,0.835,140.8
26179,33.3,0.836,141.5
26213,33.4,0.836,142.1
26228,33.6,0.835,142.8
26251,33.7,0.836,143.5
26272,33.9,0.836,144.3
26293,34.1,0.836,145.1
26313,34.2,0.836,146.0
26334,34.3,0.836,146.9
26341,34.4,0.836,147.4
26393,34.5,0.835,147.7
26451,34.6,0.834,148.0
27708,34.7,0.829,147.0
27724,34.8,0.83,147.5
27772,34.9,0.831,148.4
27789,35.0,0.831,148.8
27810,35.1,0.833,149.3
27850,35.2,0.831,150.1
27890,35.3,0.833,150.7
27911,35.4,0.833,151.1
27928,35.5,0.833,151.4
27968,35.6,0.834,152.3
27992,35.8,0.834,152.9
27994,35.9,0.834,153.5
28028,36.0,0.835,154.3
28049,36.2,0.836,155.1
28069,36.4,0.836,156.1
28090,36.5,0.836,157.0
28111,36.7,0.837,157.9
29467,36.8,0.831,156.9
29481,37.0,0.831,157.6
29508,37.1,0.833,158.5
29527,37.2,0.834,159.3
29549,37.3,0.833,160.1
29567,37.4,0.834,160.6
29585,37.5,0.834,161.2
29606,37.6,0.834,161.8
29626,37.7,0.835,162.4
29647,37.8,0.834,163.1
29667,38.0,0.834,163.7
29687,38.1,0.836,164.4
29707,38.2,0.835,165.0
29729,38.3,0.836,165.7
29744,38.4,0.835,166.3
29759,38.5,0.835,166.8
29785,38.6,0.835,167.4
29801,38.8,0.835,168.0
29827,38.9,0.836,168.6
29848,39.0,0.837,169.4
29868,39.1,0.837,170.2
29887,39.2,0.835,170.8
29942,39.3,0.835,170.7
31234,39.4,0.83,169.5
31299,39.5,0.83,170.2
31343,39.6,0.831,170.8
31363,39.7,0.831,171.2
31404,39.8,0.833,172.1
31422,39.9,0.833,172.5
31463,40.0,0.833,173.5
31482,40.1,0.834,173.9
31502,40.2,0.833,174.4
31543,40.3,0.834,175.1
31563,40.4,0.834,175.5
31605,40.5,0.835,176.3
31622,40.7,0.835,176.9
31643,40.8,0.836,177.6
31662,41.0,0.836,178.4
31680,41.2,0.837,179.4
31705,41.4,0.836,180.6
31725,41.6,0.836,181.8
33003,41.7,0.831,180.6
33022,41.8,0.831,181.2
33039,41.9,0.833,182.1
33058,42.0,0.831,182.9
33080,42.1,0.833,183.4
33120,42.2,0.833,184.1
33140,42.3,0.834,184.6
33180,42.4,0.834,185.5
33195,42.5,0.835,186.0
33211,42.6,0.834,186.5
33237,42.7,0.835,187.0
33260,42.8,0.836,187.6
33280,42.9,0.835,188.1
33300,43.0,0.835,188.7
33321,43.1,0.835,189.3
33341,43.2,0.836,189.9
33361,43.3,0.836,190.6
33364,43.5,0.836,191.3
33397,43.6,0.836,192.0
33417,43.7,0.837,192.8
33436,43.9,0.836,193.5
33457,44.0,0.835,194.2
33501,44.1,0.836,195.2
33538,44.2,0.836,195.6
33559,44.4,0.836,195.9
34836,44.5,0.83,194.5
34878,44.6,0.83,194.9
34898,44.7,0.83,195.6
34917,44.8,0.831,196.4
34934,44.9,0.833,197.1
34948,45.0,0.833,197.8
34975,45.1,0.834,198.5
34998,45.2,0.835,199.2
35016,45.3,0.835,199.9
35038,45.4,0.834,200.6
35057,45.5,0.835,201.3
35078,45.6,0.835,201.9
35099,45.7,0.836,202.6
35115,45.9,0.836,203.3
35134,46.0,0.836,204.1
35156,46.2,0.837,204.9
35171,46.3,0.837,206.0
35197,46.4,0.836,206.8
35217,46.5,0.836,207.5
36340,46.6,0.831,205.0
36373,46.7,0.831,205.5
36393,46.8,0.834,206.6
36413,46.9,0.833,207.6
36428,47.0,0.833,208.3
36446,47.1,0.834,208.8
36475,47.2,0.834,209.3
36495,47.3,0.835,210.0
36514,47.4,0.835,210.6
36532,47.5,0.835,211.3
36551,47.6,0.836,212.1
36569,47.7,0.836,212.9
36593,47.8,0.836,213.7
36614,47.9,0.836,214.3
36635,48.1,0.836,214.9
36654,48.2,0.836,215.5
36674,48.3,0.836,216.2
36692,48.4,0.837,216.9
36711,48.5,0.837,217.6
36732,48.7,0.837,218.3
36740,48.8,0.836,219.2
36774,49.0,0.837,220.1
36851,49.1,0.835,220.6
36893,49.2,0.835,220.8
38251,49.3,0.83,218.7
38287,49.4,0.83,219.6
38308,49.5,0.831,220.3
38340,49.6,0.831,221.3
38391,49.7,0.833,222.1
38412,49.8,0.834,222.6
38449,49.9,0.834,223.6
38469,50.0,0.834,224.2
38490,50.1,0.835,224.7
38509,50.2,0.835,225.3
38528,50.3,0.835,225.9
38546,50.4,0.835,226.5
38558,50.5,0.835,227.2
38588,50.6,0.836,228.0
38609,50.7,0.836,228.7
38630,50.9,0.836,229.4
38650,51.0,0.837,230.2
38670,51.1,0.836,230.9
39727,51.2,0.83,229.0
39768,51.3,0.83,229.3
39808,51.4,0.831,230.8
39818,51.5,0.833,231.4
39851,51.6,0.833,232.3
39925,51.7,0.833,232.7
39948,51.8,0.834,233.3
39969,51.9,0.834,234.1
39999,52.0,0.835,235.0
40026,52.1,0.835,235.6
40047,52.2,0.836,236.3
40063,52.4,0.835,237.0
40084,52.5,0.835,237.8
40106,52.6,0.836,238.5
40131,52.7,0.836,239.2
40146,52.8,0.837,240.0
40154,53.0,0.836,240.8
40186,53.1,0.837,241.6
40206,53.2,0.836,242.3
40227,53.3,0.837,243.0
40240,53.5,0.839,243.8
40267,53.6,0.837,244.7
40288,53.8,0.837,245.5
40320,53.9,0.835,246.6
40448,54.0,0.834,245.5
40459,54.1,0.834,246.1
40644,54.2,0.833,245.7
41561,54.3,0.83,245.1
41580,54.4,0.83,245.7
41620,54.5,0.833,247.2
41644,54.6,0.834,247.8
41664,54.7,0.833,248.4
41683,54.8,0.834,249.0
41725,54.9,0.834,250.2
41742,55.0,0.835,250.8
41783,55.1,0.835,251.7
41815,55.2,0.835,252.1
41864,55.3,0.836,252.8
41881,55.4,0.835,253.2
41895,55.5,0.835,253.7
41919,55.6,0.836,254.4
41943,55.8,0.837,255.3
41963,55.9,0.837,256.3
41984,56.0,0.836,257.1
41995,56.1,0.836,257.9
42013,56.2,0.837,258.6
42039,56.3,0.837,259.3
42063,56.4,0.835,259.7
42103,56.5,0.835,259.9
42201,56.6,0.834,259.8
43302,56.7,0.831,257.5
43319,56.8,0.833,258.7
43381,56.9,0.833,260.1
43412,57.0,0.833,260.9
43439,57.1,0.833,261.3
43479,57.2,0.834,262.4
43499,57.3,0.835,263.1
43515,57.5,0.835,264.0
43534,57.6,0.835,264.8
43556,57.7,0.836,265.6
43580,57.8,0.835,266.3
43595,57.9,0.837,267.1
43621,58.0,0.837,267.8
43637,58.1,0.836,268.5
43654,58.2,0.836,269.2
43679,58.3,0.837,269.9
43700,58.4,0.837,270.5
43721,58.5,0.836,271.0
43733,58.6,0.837,271.5
43753,58.8,0.836,272.2
43773,58.9,0.837,272.9
43795,59.0,0.836,273.7
43804,59.1,0.837,274.5
43852,59.2,0.837,275.1
43901,59.3,0.835,275.2
43957,59.4,0.835,275.0
43975,59.5,0.835,275.5
43992,59.6,0.834,276.1
46811,59.5,0.828,272.0
46833,59.4,0.826,270.7
46933,59.3,0.826,268.7
46956,59.1,0.826,267.8
46960,58.9,0.823,265.6
46993,58.8,0.823,263.0
47014,58.7,0.822,261.3
47019,58.6,0.822,260.3
47052,58.5,0.822,259.7
47069,58.4,0.82,258.9
47088,58.3,0.819,258.2
47100,58.2,0.819,257.4
47132,58.1,0.818,256.4
47149,58.0,0.817,255.3
47173,57.8,0.817,254.3
47194,57.7,0.815,253.2
47214,57.6,0.813,252.1
47235,57.4,0.813,250.8
47255,57.3,0.813,249.7
47275,57.2,0.812,248.7
47289,57.0,0.811,247.7
47307,56.9,0.811,246.6
48569,56.8,0.811,246.1
48607,56.7,0.811,244.9
48652,56.6,0.809,244.3
48662,56.5,0.808,243.6
48688,56.4,0.808,242.9
48707,56.3,0.807,242.0
48729,56.2,0.807,241.2
48750,56.1,0.806,240.5
48791,56.0,0.806,239.2
48806,55.9,0.804,238.5
48830,55.8,0.802,237.8
48844,55.7,0.804,237.3
48865,55.6,0.802,236.6
48886,55.5,0.802,236.0
48930,55.4,0.802,234.6
48950,55.3,0.801,234.1
48971,55.2,0.8,233.5
48991,55.1,0.8,232.9
49018,55.0,0.798,231.5
49049,54.8,0.797,230.9
49069,54.7,0.796,229.9
49086,54.6,0.796,228.8
49108,54.5,0.797,227.8
50487,54.2,0.795,228.3
50507,53.9,0.793,226.5
50528,53.8,0.792,224.2
50544,53.6,0.792,222.7
50564,53.5,0.791,221.9
50581,53.4,0.791,220.9
50597,53.3,0.791,220.2
50612,53.2,0.79,219.6
50643,53.1,0.79,218.9
50655,53.0,0.791,218.4
50688,52.9,0.79,217.8
50707,52.8,0.79,217.2
50728,52.7,0.79,216.8
50741,52.6,0.791,216.5
50778,52.5,0.791,215.8
50795,52.4,0.791,215.5
50826,52.3,0.791,215.1
50843,52.1,0.79,214.5
50859,51.9,0.79,213.5
50997,51.8,0.792,212.9
51043,51.7,0.792,212.4
52138,51.6,0.796,213.6
52181,51.5,0.796,212.7
52223,51.4,0.796,212.2
52265,51.3,0.795,211.3
52285,51.2,0.795,210.7
52305,51.1,0.792,210.3
52341,51.0,0.792,209.5
52359,50.9,0.792,209.0
52375,50.8,0.792,208.4
52393,50.7,0.792,207.7
52425,50.6,0.792,207.1
52442,50.5,0.792,206.4
52455,50.4,0.792,205.9
52482,50.3,0.791,205.3
52503,50.2,0.791,204.9
52523,50.1,0.791,204.5
52543,50.0,0.791,203.9
52563,49.9,0.79,203.3
52583,49.7,0.789,202.4
52597,49.5,0.79,201.3
52923,49.3,0.792,201.9
52940,49.2,0.792,200.9
52961,49.1,0.793,199.9
54301,49.0,0.795,201.0
54315,48.8,0.795,200.1
54341,48.7,0.795,198.9
54357,48.5,0.793,198.0
54372,48.4,0.792,197.1
54399,48.2,0.791,196.2
54418,48.1,0.791,195.2
54437,48.0,0.791,194.4
54459,47.8,0.791,193.5
54480,47.7,0.789,192.6
54500,47.5,0.79,191.7
54521,47.3,0.789,190.8
54538,47.2,0.789,189.9
54555,47.0,0.789,189.0
54573,46.8,0.787,187.9
54598,46.7,0.789,186.8
54659,46.6,0.79,186.6
55960,46.5,0.796,188.5
56014,46.4,0.796,187.7
56078,46.3,0.795,187.1
56097,46.2,0.793,186.7
56130,46.1,0.793,185.9
56155,46.0,0.792,185.4
56162,45.8,0.792,184.7
56196,45.7,0.791,183.9
56216,45.6,0.792,183.0
56234,45.5,0.792,182.3
56254,45.4,0.792,181.7
56274,45.3,0.791,181.1
56294,45.1,0.791,180.4
56312,45.0,0.79,179.8
56329,44.8,0.79,179.0
56345,44.6,0.789,178.1
56371,44.5,0.789,176.9
57834,44.4,0.796,178.5
57846,44.2,0.795,178.2
57863,44.0,0.793,177.1
57891,43.9,0.793,175.5
57911,43.8,0.792,174.6
57931,43.6,0.792,173.9
57947,43.5,0.791,173.1
57973,43.4,0.79,172.2
57994,43.2,0.792,171.5
58010,43.1,0.79,170.8
58031,42.9,0.791,170.0
58049,42.8,0.79,169.2
58057,42.6,0.79,168.4
58090,42.5,0.789,167.5
58111,42.3,0.79,166.7
58132,42.1,0.789,165.8
58154,42.0,0.787,164.9
58170,41.8,0.789,164.0
58191,41.7,0.79,163.3
59530,41.6,0.796,164.8
59571,41.5,0.795,164.2
59608,41.4,0.795,163.7
59641,41.3,0.793,163.0
59668,41.2,0.793,162.5
59690,41.1,0.793,162.0
59698,40.9,0.793,161.3
59728,40.8,0.792,160.6
59747,40.7,0.792,159.8
59768,40.6,0.792,159.2
59788,40.5,0.791,158.7
59809,40.4,0.791,158.2
59824,40.3,0.791,157.7
59844,40.2,0.79,157.1
59857,40.1,0.791,156.5
59891,39.9,0.791,155.9
59909,39.7,0.79,155.1
59925,39.5,0.79,154.0
61223,39.4,0.796,154.5
61234,39.3,0.796,154.5
61267,39.0,0.795,153.9
61287,38.9,0.793,152.4
61307,38.7,0.793,151.2
61328,38.6,0.792,150.4
61337,38.4,0.792,149.6
61364,38.3,0.792,148.7
61384,38.2,0.791,148.0
61406,38.0,0.79,147.2
61423,37.9,0.791,146.4
61438,37.7,0.791,145.6
61463,37.5,0.79,144.7
61484,37.3,0.791,143.9
61505,37.1,0.79,143.0
61525,36.9,0.789,141.9
62684,36.8,0.795,142.4
62741,36.7,0.795,141.8
62783,36.6,0.795,141.3
62803,36.5,0.795,140.9
62844,36.4,0.793,140.1
62865,36.3,0.793,139.7
62885,36.2,0.793,139.3
62895,36.1,0.793,138.8
62922,36.0,0.793,138.3
62944,35.9,0.792,137.7
62962,35.8,0.791,137.2
62982,35.7,0.792,136.7
63004,35.6,0.792,136.1
63025,35.5,0.792,135.7
63036,35.4,0.791,135.2
63053,35.3,0.791,134.6
63070,35.1,0.791,134.0
63102,35.0,0.791,133.3
63120,34.7,0.79,132.4
63143,34.4,0.789,131.1
63163,34.3,0.789,129.7
64441,34.1,0.793,130.8
64456,33.9,0.795,129.9
64478,33.8,0.795,128.8
64498,33.7,0.793,128.1
64517,33.6,0.792,127.4
64535,33.4,0.793,126.6
64554,33.3,0.793,126.0
64566,33.1,0.792,125.3
64600,33.0,0.792,124.5
64621,32.8,0.792,123.7
64642,32.6,0.791,122.9
64658,32.4,0.79,122.0
64669,32.2,0.79,121.0
64695,32.0,0.79,119.9
64720,31.9,0.79,118.7
65912,31.8,0.795,119.6
65956,31.7,0.795,119.1
65977,31.6,0.795,118.8
66018,31.5,0.795,118.2
66059,31.4,0.795,117.5
66076,31.3,0.793,117.1
66092,31.2,0.793,116.6
66117,31.0,0.793,116.0
66137,30.9,0.793,115.3
66157,30.8,0.793,114.8
66177,30.7,0.793,114.3
66198,30.6,0.792,113.7
66218,30.5,0.792,113.2
66235,30.4,0.791,112.7
66256,30.3,0.792,112.1
66276,30.2,0.792,111.5
66296,30.0,0.791,111.0
66308,29.8,0.791,110.4
66335,29.6,0.791,109.5
66356,29.5,0.792,108.4
67566,29.3,0.795,109.0
67592,29.2,0.793,108.5
67615,29.0,0.795,107.6
67635,28.9,0.795,106.9
67652,28.8,0.795,106.3
67664,28.7,0.795,105.7
67694,28.6,0.792,105.1
67714,28.5,0.793,104.5
67734,28.4,0.792,103.9
67754,28.2,0.793,103.3
67772,28.1,0.792,102.8
67790,28.0,0.792,102.2
67805,27.9,0.792,101.6
67831,27.7,0.791,101.0
67838,27.6,0.792,100.4
67867,27.5,0.791,99.7
67893,27.3,0.792,99.0
67914,27.2,0.791,98.3
67935,27.1,0.791,97.7
68951,27.0,0.796,98.2
69038,26.9,0.795,97.7
69089,26.8,0.795,97.4
69121,26.7,0.793,96.8
69153,26.6,0.795,96.5
69192,26.5,0.795,95.8
69208,26.4,0.795,95.3
69229,26.3,0.793,94.8
69250,26.1,0.793,94.2
69270,26.0,0.793,93.7
69283,25.9,0.792,93.2
69310,25.8,0.792,92.7
69327,25.7,0.792,92.2
69344,25.6,0.792,91.7
69370,25.5,0.792,91.2
69389,25.4,0.793,90.8
69409,25.3,0.792,90.3
69430,25.2,0.792,89.7
69450,25.0,0.791,89.2
69470,24.7,0.791,88.3
69491,24.5,0.791,87.1
70949,24.4,0.796,87.2
70969,24.2,0.796,86.8
70987,24.1,0.795,86.1
71004,24.0,0.795,85.3
71020,23.8,0.793,84.7
71046,23.7,0.795,84.1
71066,23.6,0.792,83.4
71083,23.5,0.793,82.9
71103,23.3,0.793,82.3
71124,23.2,0.792,81.6
71147,23.0,0.793,81.0
71167,22.9,0.792,80.2
71187,22.8,0.791,79.6
71207,22.6,0.792,78.9
71228,22.4,0.792,78.2
71249,22.2,0.791,77.4
71257,22.1,0.79,76.6
71283,22.0,0.792,75.8
71341,21.9,0.791,75.4
71387,21.8,0.792,75.0
72439,21.7,0.796,75.4
72484,21.6,0.795,75.0
72541,21.5,0.796,74.4
72563,21.4,0.795,74.1
72584,21.3,0.795,73.6
72604,21.2,0.795,73.2
72617,21.1,0.793,72.6
72643,21.0,0.793,72.1
72664,20.8,0.793,71.6
72696,20.7,0.793,70.6
72722,20.6,0.792,70.2
72743,20.5,0.793,69.8
72764,20.4,0.793,69.4
72785,20.3,0.792,69.0
72805,20.2,0.793,68.6
72825,20.0,0.792,68.1
72842,19.8,0.792,67.5
72862,19.7,0.792,66.7
72882,19.6,0.791,65.9
74161,19.4,0.795,66.4
74181,19.2,0.795,65.6
74201,19.1,0.793,64.6
74222,19.0,0.795,63.8
74242,18.8,0.793,63.3
74261,18.7,0.793,62.7
74278,18.6,0.793,62.1
74294,18.4,0.793,61.6
74313,18.3,0.792,60.9
74340,18.2,0.792,60.3
74364,18.0,0.792,59.7
74380,17.9,0.792,59.1
74403,17.8,0.792,58.5
