Time,Length,Pressure,Force
13,0.0,0.197,0.0
2729,0.1,0.197,0.0
2753,0.3,0.197,0.3
2760,0.5,0.197,0.7
2793,0.6,0.197,1.1
2813,0.7,0.197,1.4
2830,0.8,0.197,1.6
2850,0.9,0.197,1.7
2870,1.0,0.197,1.9
2891,1.2,0.197,2.0
2912,1.3,0.197,2.3
2932,1.5,0.197,2.5
2952,1.7,0.197,3.0
2959,1.8,0.197,3.7
2992,2.0,0.198,4.0
2999,2.1,0.197,4.4
3031,2.2,0.198,4.7
3049,2.3,0.198,4.9
4588,2.4,0.197,5.0
4628,2.5,0.197,5.1
4648,2.6,0.197,5.3
4669,2.7,0.198,5.4
4683,2.9,0.198,5.7
4703,3.0,0.198,6.2
4715,3.1,0.198,6.6
4742,3.2,0.197,6.8
4766,3.3,0.198,7.0
4786,3.4,0.197,7.2
4797,3.6,0.198,7.5
4828,3.7,0.198,7.9
4848,3.8,0.197,8.2
4870,4.0,0.198,8.5
4889,4.1,0.198,8.8
4906,4.2,0.198,9.2
4927,4.3,0.198,9.5
4945,4.5,0.198,9.7
4969,4.6,0.198,10.0
4984,4.7,0.198,10.3
5003,4.8,0.198,10.6
5016,4.9,0.198,10.9
5045,5.0,0.198,11.2
5066,5.1,0.198,11.4
6647,5.2,0.197,11.2
6661,5.3,0.197,11.3
6678,5.4,0.197,11.7
6695,5.5,0.198,12.0
6721,5.6,0.198,12.2
6744,5.7,0.198,12.5
6760,5.9,0.198,12.9
6785,6.0,0.198,13.3
6803,6.1,0.198,13.6
6824,6.2,0.198,13.9
6844,6.4,0.198,14.2
6865,6.5,0.198,14.6
6885,6.7,0.198,15.0
6906,6.9,0.2,15.4
6925,7.1,0.198,15.9
6935,7.3,0.198,16.4
6963,7.4,0.198,16.9
6982,7.5,0.2,17.3
8315,7.6,0.198,17.2
8362,7.7,0.198,17.4
8400,7.8,0.198,17.7
8410,7.9,0.198,17.9
8437,8.0,0.197,18.1
8459,8.1,0.198,18.3
8491,8.2,0.198,18.8
8523,8.3,0.198,19.0
8539,8.4,0.198,19.2
8558,8.5,0.198,19.6
8581,8.6,0.198,19.9
8601,8.8,0.198,20.3
8621,8.9,0.2,20.6
8632,9.0,0.198,21.0
8658,9.2,0.2,21.4
8681,9.4,0.2,21.8
8692,9.6,0.198,22.2
8709,9.8,0.2,22.8
8736,10.0,0.2,23.4
8758,10.1,0.2,24.0
10280,10.2,0.198,23.9
10346,10.3,0.198,24.2
10378,10.4,0.197,24.4
10412,10.5,0.198,24.8
10430,10.7,0.198,25.0
10456,10.8,0.2,25.4
10475,10.9,0.198,25.7
10497,11.0,0.198,26.0
10514,11.1,0.198,26.3
10531,11.2,0.198,26.6
10551,11.4,0.198,27.0
10580,11.5,0.2,27.4
10596,11.7,0.198,27.9
10613,11.9,0.198,28.3
10633,12.1,0.2,28.9
10657,12.3,0.2,29.5
10677,12.5,0.2,30.2
10697,12.6,0.2,30.8
10718,12.7,0.2,31.3
12095,12.8,0.198,30.7
12116,12.9,0.198,30.9
12128,13.0,0.2,31.3
12147,13.1,0.198,31.6
12160,13.2,0.2,31.9
12193,13.3,0.2,32.3
12211,13.4,0.2,32.6
12230,13.6,0.198,32.9
12254,13.7,0.2,33.3
12275,13.8,0.2,33.7
12293,14.0,0.2,34.2
12301,14.1,0.2,34.6
12331,14.3,0.201,35.1
12350,14.5,0.201,35.6
12366,14.7,0.2,36.2
12393,14.8,0.201,36.8
12414,14.9,0.201,37.3
12434,15.0,0.201,37.6
12475,15.1,0.201,38.0
13991,15.2,0.198,37.4
14011,15.3,0.2,37.6
14031,15.4,0.2,38.0
14044,15.5,0.2,38.4
14070,15.6,0.198,38.8
14085,15.7,0.2,39.1
14101,15.8,0.198,39.3
14151,15.9,0.2,39.8
14167,16.0,0.2,40.0
14192,16.1,0.2,40.2
14212,16.2,0.2,40.5
14232,16.3,0.2,40.8
14244,16.4,0.201,41.2
14260,16.6,0.201,41.6
14286,16.8,0.2,42.1
14309,17.1,0.201,42.8
14326,17.3,0.201,43.6
14342,17.4,0.201,44.4
14360,17.5,0.201,44.9
14406,17.6,0.202,45.3
15788,17.7,0.2,44.8
15826,17.8,0.2,45.0
15843,17.9,0.2,45.2
15862,18.0,0.2,45.6
15881,18.1,0.201,46.0
15907,18.2,0.201,46.3
15928,18.3,0.201,46.7
15946,18.5,0.201,47.2
15964,18.6,0.201,47.6
15985,18.8,0.201,48.1
16006,18.9,0.202,48.6
16026,19.1,0.201,49.1
16047,19.3,0.202,49.7
16061,19.6,0.201,50.3
16081,19.8,0.202,51.1
16102,20.0,0.202,52.0
16125,20.1,0.203,52.8
16166,20.2,0.203,53.5
16184,20.3,0.202,53.7
17685,20.4,0.202,53.1
17703,20.5,0.201,53.3
17743,20.6,0.202,53.8
17763,20.7,0.202,54.1
17783,20.8,0.202,54.5
17804,20.9,0.202,54.8
17815,21.1,0.202,55.2
17841,21.2,0.202,55.6
17848,21.3,0.202,56.0
17882,21.4,0.203,56.4
17903,21.6,0.203,56.9
17923,21.8,0.203,57.4
17943,21.9,0.203,58.0
17964,22.0,0.203,58.6
17984,22.1,0.203,59.0
18003,22.2,0.203,59.4
18021,22.4,0.203,59.9
18036,22.6,0.205,60.5
18056,22.7,0.205,61.1
18083,22.8,0.205,61.6
19561,22.9,0.202,61.1
19574,23.0,0.203,61.4
19601,23.1,0.202,61.7
19611,23.2,0.202,62.0
19659,23.4,0.203,62.7
19680,23.5,0.205,63.0
19700,23.6,0.205,63.5
19720,23.8,0.205,64.0
19741,23.9,0.205,64.5
19747,24.0,0.205,65.0
19779,24.2,0.205,65.6
19796,24.4,0.205,66.1
19812,24.6,0.205,66.8
19834,24.8,0.206,67.6
19863,25.1,0.207,68.5
19880,25.2,0.207,69.5
21397,25.3,0.205,69.0
21436,25.4,0.205,69.5
21457,25.5,0.205,69.8
21475,25.6,0.205,70.2
21494,25.8,0.205,70.7
21512,25.9,0.205,71.2
21529,26.0,0.206,71.7
21545,26.1,0.206,72.1
21572,26.2,0.206,72.5
21597,26.3,0.206,73.0
21617,26.5,0.206,73.5
21637,26.6,0.207,74.0
21654,26.8,0.207,74.6
21674,27.0,0.207,75.2
21684,27.1,0.207,75.9
21716,27.3,0.207,76.6
21733,27.4,0.208,77.4
21748,27.5,0.208,77.9
21785,27.6,0.208,78.4
23092,27.7,0.207,77.6
23110,27.8,0.206,77.8
23153,27.9,0.207,78.5
23162,28.0,0.207,78.8
23193,28.1,0.207,79.2
23210,28.2,0.208,79.5
23231,28.3,0.208,79.9
23251,28.4,0.208,80.4
23269,28.6,0.208,80.9
23289,28.7,0.208,81.5
23310,28.8,0.208,82.0
23334,29.0,0.208,82.5
23351,29.1,0.209,83.2
23373,29.3,0.209,83.9
23391,29.4,0.211,84.6
23411,29.7,0.209,85.3
23431,29.9,0.211,86.2
23452,30.0,0.212,87.2
25030,30.1,0.209,86.5
25041,30.2,0.208,86.7
25065,30.3,0.209,87.1
25083,30.4,0.209,87.6
25110,30.5,0.209,88.1
25127,30.6,0.209,88.6
25148,30.7,0.209,89.2
25168,30.9,0.211,89.7
25185,31.0,0.211,90.2
25196,31.1,0.211,90.8
25228,31.2,0.212,91.4
25250,31.4,0.212,91.9
25262,31.5,0.212,92.6
25288,31.7,0.212,93.2
25295,31.8,0.213,93.8
25324,31.9,0.213,94.5
25348,32.1,0.213,95.1
25369,32.2,0.213,95.7
25403,32.3,0.213,96.7
26687,32.4,0.211,95.7
26696,32.5,0.212,96.1
26722,32.6,0.212,96.5
26745,32.7,0.212,96.9
26778,32.8,0.213,97.7
26802,32.9,0.213,98.1
26819,33.0,0.213,98.6
26846,33.1,0.213,99.0
26867,33.2,0.213,99.3
26905,33.3,0.214,100.0
26924,33.4,0.214,100.5
26939,33.6,0.214,101.0
26966,33.7,0.214,101.5
26987,33.8,0.214,102.1
27003,34.0,0.216,102.8
27023,34.1,0.216,103.5
27038,34.3,0.217,104.2
27065,34.5,0.216,105.1
27080,34.8,0.218,106.2
27105,35.0,0.218,107.6
27145,35.1,0.218,109.3
28720,35.2,0.216,107.5
28740,35.3,0.216,108.0
28753,35.4,0.217,108.6
28768,35.5,0.217,109.2
28801,35.7,0.217,109.8
28822,35.8,0.217,110.3
28841,35.9,0.218,111.0
28863,36.0,0.217,111.6
28883,36.1,0.218,112.2
28899,36.2,0.218,112.8
28920,36.4,0.218,113.4
28935,36.5,0.219,114.0
28948,36.7,0.219,114.8
28982,36.9,0.22,115.7
29002,37.1,0.22,116.7
29022,37.3,0.22,117.9
29041,37.4,0.22,119.0
29063,37.5,0.222,119.7
29100,37.6,0.222,120.7
30378,37.7,0.219,119.2
30419,37.8,0.219,119.9
30439,37.9,0.219,120.5
30457,38.0,0.22,121.1
30475,38.1,0.22,121.6
30491,38.2,0.22,122.2
30507,38.3,0.222,122.7
30534,38.4,0.222,123.3
30558,38.6,0.222,123.9
30578,38.7,0.222,124.5
30598,38.8,0.223,125.2
30619,39.0,0.223,126.0
30638,39.1,0.224,126.9
30654,39.3,0.224,127.7
30677,39.5,0.224,128.8
30693,39.7,0.225,130.0
30710,39.9,0.224,131.2
30736,40.0,0.225,132.3
30799,40.1,0.225,133.5
30820,40.2,0.225,133.8
32516,40.0,0.223,131.6
32536,39.9,0.222,130.2
32543,39.8,0.22,128.5
32573,39.7,0.222,127.6
32635,39.6,0.22,126.8
32652,39.4,0.22,126.5
32667,39.3,0.22,125.7
32693,39.1,0.219,124.7
32699,38.8,0.218,123.5
32734,38.6,0.218,122.1
32754,38.4,0.217,120.7
32767,38.2,0.217,119.4
32794,37.9,0.216,118.2
32814,37.7,0.214,116.9
32835,37.5,0.213,115.5
32856,37.4,0.214,114.1
34511,37.3,0.213,113.0
34572,37.2,0.213,112.5
34599,37.1,0.212,112.0
34626,37.0,0.212,111.6
34649,36.9,0.211,110.9
34666,36.8,0.212,110.3
34686,36.7,0.211,109.7
34707,36.5,0.211,109.1
34731,36.4,0.209,108.4
34752,36.3,0.209,107.7
34769,36.1,0.209,107.1
34789,36.0,0.209,106.4
34805,35.8,0.208,105.7
34823,35.7,0.208,104.9
34838,35.5,0.208,104.1
34871,35.4,0.207,103.3
34890,35.1,0.207,102.4
34905,35.0,0.207,101.4
34928,34.9,0.206,100.5
36546,34.8,0.205,99.8
36566,34.6,0.205,99.3
36586,34.5,0.205,98.5
36599,34.3,0.203,97.7
36625,34.1,0.203,96.9
36648,34.0,0.203,96.2
36665,33.9,0.202,95.5
36686,33.8,0.202,94.9
36705,33.6,0.202,94.3
36726,33.5,0.202,93.7
36747,33.3,0.201,93.0
36754,33.1,0.201,92.3
36787,32.9,0.201,91.5
36807,32.7,0.2,90.5
36823,32.5,0.198,89.4
36839,32.3,0.198,88.3
38342,32.2,0.198,87.1
38401,32.1,0.198,86.6
38443,32.0,0.198,86.2
38484,31.9,0.197,85.7
38504,31.8,0.197,85.3
38524,31.6,0.197,84.8
38544,31.5,0.197,84.3
38559,31.3,0.196,83.7
38580,31.2,0.196,83.0
38602,31.0,0.195,82.3
38609,30.9,0.195,81.6
38641,30.7,0.195,81.0
38664,30.5,0.195,80.3
38684,30.3,0.194,79.5
38700,30.0,0.194,78.6
38721,29.9,0.192,77.6
38734,29.8,0.194,76.7
40299,29.6,0.197,78.2
40305,29.5,0.196,77.6
40337,29.3,0.196,76.9
40355,29.2,0.196,76.3
40381,29.0,0.196,75.8
40401,28.8,0.195,75.2
40420,28.7,0.195,74.4
40436,28.5,0.195,73.8
40457,28.3,0.195,73.2
40478,28.2,0.195,72.5
40496,28.0,0.194,71.8
40514,27.8,0.195,71.1
40534,27.6,0.194,70.5
40561,27.5,0.194,69.8
40580,27.4,0.194,69.2
41916,27.3,0.197,70.3
41957,27.2,0.197,70.2
41998,27.1,0.197,69.6
42006,27.0,0.197,69.3
42033,26.9,0.195,69.0
42055,26.7,0.196,68.6
42076,26.5,0.196,68.0
42096,26.4,0.196,67.3
42115,26.2,0.195,66.7
42138,26.0,0.196,66.1
42156,25.8,0.195,65.5
42173,25.7,0.195,64.8
42194,25.5,0.195,64.2
42215,25.3,0.194,63.5
42234,25.1,0.194,62.8
42255,25.0,0.195,62.3
43894,24.9,0.197,63.0
43911,24.7,0.197,62.8
43931,24.6,0.196,62.1
43951,24.4,0.196,61.5
43972,24.3,0.196,61.0
43992,24.1,0.196,60.4
44013,23.9,0.196,59.8
44033,23.7,0.195,59.2
44052,23.6,0.195,58.5
44068,23.4,0.195,57.9
44084,23.2,0.195,57.3
44102,23.0,0.195,56.8
44131,22.8,0.195,56.0
44152,22.7,0.194,55.5
44172,22.5,0.195,54.8
44271,22.4,0.195,54.3
45528,22.3,0.196,54.9
45583,22.2,0.197,54.6
45599,22.1,0.197,54.4
45633,22.0,0.196,54.1
45650,21.9,0.197,53.8
45671,21.8,0.197,53.4
45688,21.7,0.196,52.9
45708,21.5,0.196,52.4
45729,21.4,0.196,52.1
45746,21.3,0.196,51.6
45757,21.1,0.196,51.2
45790,21.0,0.195,50.6
45806,20.8,0.195,50.1
45823,20.6,0.195,49.7
45848,20.4,0.195,49.1
45864,20.2,0.195,48.4
45889,20.0,0.195,47.6
45908,19.9,0.194,47.0
47526,19.8,0.197,47.7
47547,19.7,0.197,47.5
47565,19.6,0.197,46.9
47585,19.5,0.197,46.5
47600,19.4,0.196,46.1
47625,19.2,0.196,45.8
47646,19.1,0.196,45.4
47666,19.0,0.195,44.9
47684,18.8,0.196,44.4
47699,18.7,0.196,43.9
47717,18.5,0.196,43.5
47737,18.3,0.196,43.0
47764,18.2,0.196,42.5
47783,18.0,0.195,42.0
47806,17.9,0.195,41.5
47826,17.7,0.195,41.0
49382,17.6,0.196,41.3
49402,17.5,0.197,41.0
49423,17.4,0.197,40.6
49447,17.3,0.197,40.1
49479,17.2,0.197,39.9
49513,17.1,0.196,39.4
49534,17.0,0.196,39.1
49562,16.8,0.196,38.8
49583,16.6,0.196,38.4
49604,16.4,0.196,37.9
49620,16.3,0.196,37.3
49635,16.1,0.196,36.7
49653,15.9,0.196,36.3
49679,15.8,0.195,35.7
49701,15.6,0.196,35.3
49717,15.4,0.196,34.8
49735,15.3,0.195,34.2
49760,15.2,0.195,33.8
49780,15.0,0.195,33.3
49820,14.9,0.195,32.7
51455,14.8,0.197,33.4
51472,14.6,0.196,33.1
51487,14.4,0.196,32.5
51514,14.2,0.196,31.8
51537,14.0,0.196,31.2
51555,13.9,0.196,30.7
51578,13.7,0.196,30.2
51598,13.6,0.196,29.7
51618,13.5,0.196,29.3
51639,13.3,0.196,28.9
51654,13.2,0.196,28.5
51672,13.0,0.196,28.1
51697,12.9,0.195,27.6
51711,12.7,0.196,27.2
53174,12.6,0.197,27.1
53216,12.5,0.197,26.9
53231,12.4,0.197,26.6
53253,12.3,0.197,26.2
53270,12.2,0.197,25.9
53294,12.1,0.197,25.7
53310,12.0,0.196,25.4
53334,11.9,0.196,25.1
53355,11.7,0.196,24.8
53374,11.5,0.196,24.3
53391,11.3,0.196,23.7
53409,11.1,0.197,23.2
53426,11.0,0.196,22.7
53451,10.7,0.196,22.2
53473,10.5,0.196,21.5
53490,10.3,0.195,20.9
53515,10.1,0.195,20.3
53533,10.0,0.196,19.8
55091,9.9,0.197,20.0
55112,9.8,0.197,20.0
55129,9.6,0.197,19.5
55149,9.5,0.197,19.0
55164,9.4,0.197,18.7
55184,9.3,0.197,18.3
55196,9.2,0.196,18.1
55231,9.1,0.197,17.9
55246,9.0,0.197,17.6
55260,8.9,0.196,17.3
55292,8.7,0.196,16.9
55296,8.6,0.196,16.5
55329,8.5,0.196,16.1
55350,8.3,0.196,15.7
55369,8.2,0.196,15.3
55391,8.0,0.196,15.0
55412,7.9,0.195,14.6
55421,7.7,0.196,14.1
55448,7.5,0.196,13.6
55488,7.6,0.196,13.2
56587,7.7,0.197,14.3
56762,7.6,0.197,14.4
56807,7.5,0.197,14.1
56822,7.4,0.197,13.8
56845,7.3,0.197,13.4
56865,7.1,0.196,13.1
56886,7.0,0.197,12.9
56907,6.9,0.196,12.5
56927,6.7,0.197,12.0
56944,6.5,0.196,11.5
56964,6.4,0.196,11.0
56987,6.2,0.196,10.6
57004,6.1,0.196,10.3
57023,5.9,0.196,9.9
57039,5.7,0.196,9.5
57066,5.5,0.196,9.2
57087,5.3,0.196,8.7
57107,5.2,0.196,8.2
57127,5.1,0.196,7.8
58684,5.0,0.197,8.2
58700,4.8,0.197,8.1
58725,4.6,0.197,7.6
58741,4.5,0.197,7.2
58759,4.4,0.197,6.8
58802,4.3,0.197,6.3
58823,4.2,0.197,6.2
58864,4.1,0.196,5.9
58884,3.9,0.197,5.7
58899,3.8,0.197,5.4
58921,3.7,0.196,5.1
58936,3.6,0.197,4.9
58963,3.4,0.196,4.6
58982,3.3,0.196,4.4
59003,3.2,0.196,4.1
59024,3.0,0.196,3.9
59044,2.9,0.197,3.6
59059,2.8,0.196,3.4
59078,2.7,0.196,3.1
60417,2.6,0.197,3.5
60481,2.5,0.197,3.1
60518,2.4,0.197,3.0
60560,2.2,0.197,2.7
60580,2.1,0.197,2.4
60598,2.0,0.197,2.1
60615,1.9,0.197,1.9
60635,1.7,0.197,1.7
60657,1.5,0.197,1.4
60679,1.4,0.196,1.1
60699,1.2,0.197,0.8
60714,1.1,0.196,0.6
60740,0.9,0.197,0.4
60760,0.8,0.197,0.2
60780,0.6,0.197,0.0
60801,0.5,0.197,0.2
60813,0.4,0.196,0.4
60837,0.3,0.196,0.6
60851,0.2,0.196,0.8
