Time,Length,Pressure,Force
14,0.0,-0.001,45.8
16741,-0.1,0.014,48.8
16778,-0.2,0.018,48.6
16840,-0.3,0.022,49.1
16881,-0.4,0.027,49.0
16901,-0.5,0.03,49.0
16942,-0.6,0.035,49.1
16958,-0.7,0.037,49.2
16979,-0.8,0.04,49.2
17020,-1.0,0.051,49.5
17041,-1.2,0.057,50.6
17061,-1.5,0.06,51.5
17081,-1.8,0.068,49.2
17098,-1.9,0.075,48.3
17119,-2.2,0.082,49.2
17139,-2.4,0.085,50.8
17160,-2.7,0.093,50.7
17180,-3.0,0.099,49.6
17200,-3.4,0.106,50.7
17220,-3.8,0.114,50.6
17241,-4.2,0.12,50.2
17258,-4.6,0.129,49.9
17278,-5.1,0.134,50.6
17298,-5.6,0.145,50.3
17319,-6.3,0.153,50.1
17339,-6.9,0.157,52.3
17360,-7.6,0.169,50.1
17380,-8.5,0.179,49.4
17400,-9.3,0.18,52.1
17417,-10.1,0.194,49.9
17438,-11.0,0.202,49.3
17459,-12.0,0.207,51.7
17479,-13.1,0.219,51.0
17499,-14.2,0.227,51.0
17520,-15.4,0.231,52.1
17540,-16.7,0.247,50.6
17560,-18.1,0.252,51.1
17577,-19.6,0.258,53.4
17598,-21.1,0.272,50.3
17618,-22.6,0.28,50.3
17638,-24.0,0.288,51.7
17659,-25.4,0.301,49.7
17679,-26.7,0.31,50.3
17700,-28.0,0.318,51.8
17720,-29.2,0.329,51.2
17738,-30.5,0.34,50.6
17758,-31.7,0.345,51.7
17778,-32.9,0.356,51.9
17798,-34.0,0.367,51.1
17819,-35.1,0.373,51.7
17839,-36.1,0.383,51.2
17859,-37.0,0.394,50.1
17880,-37.8,0.401,50.2
17896,-38.6,0.41,50.6
17918,-39.3,0.421,50.4
17938,-40.0,0.431,50.6
17957,-40.8,0.437,51.6
17979,-41.5,0.444,51.3
17999,-42.2,0.45,51.1
18020,-42.9,0.46,50.2
18040,-43.5,0.467,49.6
18056,-44.0,0.476,50.2
18077,-44.5,0.484,50.1
18097,-44.9,0.49,50.8
18117,-45.4,0.499,50.8
18139,-45.8,0.506,51.0
18160,-46.3,0.512,51.0
18180,-46.7,0.517,50.9
18199,-47.1,0.523,50.4
18216,-47.5,0.53,50.2
18236,-47.8,0.536,50.3
18257,-48.0,0.541,50.4
18278,-48.3,0.547,50.6
18298,-48.6,0.552,50.6
18318,-48.9,0.556,50.9
18339,-49.1,0.559,50.9
18359,-49.4,0.565,50.4
18376,-49.6,0.569,50.2
18399,-49.8,0.572,50.3
18417,-49.9,0.575,50.3
18437,-50.1,0.58,50.1
18458,-50.2,0.582,50.4
18478,-50.3,0.585,50.6
18499,-50.5,0.588,50.5
18519,-50.6,0.587,50.3
18540,-50.7,0.591,50.5
18556,-50.8,0.592,50.4
18599,-50.9,0.596,50.4
18617,-51.0,0.597,50.4
18896,-50.9,0.578,46.8
18939,-50.8,0.575,46.3
18957,-50.7,0.572,46.3
18977,-50.6,0.569,46.1
18994,-50.4,0.564,45.9
19014,-50.2,0.558,45.6
19035,-50.0,0.553,45.4
19056,-49.7,0.548,45.3
19076,-49.4,0.542,45.3
19097,-49.1,0.537,45.5
19117,-48.8,0.531,45.7
19138,-48.5,0.525,45.8
19157,-48.2,0.517,45.5
19174,-47.9,0.51,45.0
19195,-47.5,0.504,44.6
19215,-47.1,0.497,44.5
19236,-46.6,0.489,44.7
19256,-46.2,0.481,44.8
19277,-45.7,0.475,45.0
19297,-45.2,0.465,44.8
19314,-44.7,0.457,44.7
19334,-44.2,0.45,44.2
19356,-43.6,0.442,43.9
19376,-43.0,0.434,44.1
19396,-42.3,0.427,44.1
19416,-41.7,0.417,44.6
19436,-41.0,0.409,45.0
19457,-40.4,0.4,44.8
19477,-39.6,0.391,44.3
19493,-38.9,0.384,44.0
19515,-38.1,0.374,44.1
19535,-37.3,0.366,44.0
19555,-36.4,0.357,43.7
19577,-35.4,0.348,44.0
19596,-34.5,0.339,44.2
19616,-33.5,0.33,44.0
19633,-32.4,0.321,43.8
19653,-31.3,0.312,43.7
19675,-30.2,0.305,43.6
19694,-29.1,0.296,44.0
19715,-28.0,0.286,44.3
19736,-26.8,0.278,43.9
19756,-25.5,0.269,43.6
19777,-24.2,0.26,43.3
19794,-22.9,0.252,43.5
19814,-21.6,0.244,43.5
19834,-20.3,0.235,43.8
19854,-19.0,0.227,44.3
19875,-17.7,0.219,43.9
19895,-16.5,0.211,44.3
19915,-15.3,0.201,44.5
19936,-14.1,0.192,44.0
19953,-12.9,0.186,43.3
19973,-11.7,0.178,43.9
19994,-10.6,0.168,45.1
20015,-9.7,0.157,45.6
20036,-8.8,0.151,45.1
20055,-7.9,0.143,45.0
20075,-7.2,0.135,45.4
20096,-6.6,0.125,45.5
20112,-5.9,0.119,45.0
20132,-5.4,0.112,45.2
20153,-4.9,0.106,45.5
20173,-4.5,0.098,45.3
20194,-4.1,0.093,44.8
20215,-3.7,0.086,44.4
20235,-3.4,0.08,44.9
20256,-3.1,0.074,44.9
20273,-2.8,0.069,45.1
20293,-2.6,0.064,45.1
20313,-2.4,0.059,44.6
20333,-2.2,0.054,44.2
20353,-2.0,0.051,44.2
20374,-1.8,0.046,44.7
20395,-1.7,0.043,45.0
20412,-1.5,0.04,45.0
20431,-1.4,0.036,44.6
20452,-1.3,0.033,44.3
20473,-1.2,0.031,44.3
20493,-1.1,0.027,44.6
20514,-1.0,0.026,44.9
20555,-0.9,0.024,44.8
20592,-0.8,0.02,44.3
20632,-0.7,0.02,44.9
20891,-0.8,0.031,47.8
20932,-0.9,0.036,48.6
20952,-1.0,0.038,48.6
20993,-1.1,0.044,48.7
21013,-1.2,0.049,48.9
21033,-1.4,0.054,49.9
21050,-1.6,0.059,50.2
21071,-1.9,0.065,49.7
21091,-2.1,0.073,48.6
21113,-2.3,0.077,49.0
21132,-2.6,0.084,49.5
21153,-2.9,0.093,49.1
21173,-3.2,0.097,51.0
21193,-3.6,0.103,50.9
21210,-4.0,0.117,47.9
21232,-4.4,0.119,50.0
21252,-4.8,0.124,51.0
21271,-5.3,0.137,47.9
21292,-5.8,0.141,50.4
21312,-6.5,0.147,52.8
21333,-7.1,0.157,48.7
21353,-7.8,0.167,47.9
21370,-8.6,0.172,51.6
21390,-9.4,0.178,51.2
21411,-10.3,0.192,47.9
21432,-11.2,0.198,50.4
21453,-12.3,0.202,52.7
21473,-13.4,0.217,50.1
21492,-14.5,0.228,49.7
21513,-15.8,0.231,52.2
21530,-17.1,0.241,52.2
21550,-18.5,0.253,49.0
21570,-19.9,0.26,50.5
21591,-21.2,0.268,52.3
21612,-22.7,0.284,49.7
21632,-24.2,0.286,51.4
21652,-25.7,0.296,51.8
21673,-27.1,0.308,49.5
21690,-28.4,0.316,50.1
21710,-29.7,0.323,50.3
21731,-30.8,0.337,49.5
21750,-32.0,0.344,49.9
21771,-33.1,0.351,51.2
21791,-34.1,0.366,50.2
21812,-35.2,0.372,50.7
21833,-36.2,0.383,50.7
21853,-37.2,0.391,50.5
21870,-38.0,0.399,50.8
21891,-38.9,0.41,50.1
21911,-39.6,0.42,49.7
21932,-40.4,0.424,50.6
21952,-41.0,0.433,50.8
21972,-41.7,0.444,50.0
21992,-42.3,0.453,50.5
22009,-42.9,0.461,51.2
22029,-43.5,0.47,50.7
22050,-44.0,0.476,51.2
22070,-44.6,0.478,50.5
22091,-45.1,0.486,50.7
22111,-45.5,0.495,50.3
22131,-45.9,0.503,50.4
22148,-46.3,0.51,50.5
22168,-46.7,0.517,50.7
22189,-47.1,0.521,51.1
22209,-47.5,0.528,51.0
22229,-47.9,0.533,50.6
22250,-48.2,0.538,50.3
22271,-48.4,0.544,50.4
22291,-48.7,0.549,50.4
22308,-48.9,0.554,50.6
22329,-49.1,0.559,50.4
22349,-49.4,0.564,50.7
22369,-49.6,0.569,51.2
22389,-49.8,0.571,51.1
22410,-50.0,0.575,50.6
22431,-50.2,0.578,50.1
22451,-50.4,0.581,50.1
22471,-50.5,0.583,50.1
22509,-50.6,0.588,50.3
22529,-50.7,0.591,50.4
22549,-50.8,0.592,50.7
22570,-50.9,0.594,51.0
22590,-51.0,0.596,50.9
22610,-51.1,0.596,50.5
22889,-51.0,0.58,46.9
22930,-50.9,0.575,46.4
22946,-50.8,0.575,46.3
22967,-50.7,0.57,46.2
22989,-50.6,0.565,46.0
23009,-50.4,0.56,45.6
23029,-50.1,0.556,45.4
23049,-49.9,0.55,45.3
23070,-49.6,0.544,45.3
23089,-49.3,0.538,45.5
23110,-49.0,0.532,45.6
23127,-48.7,0.526,45.4
23148,-48.3,0.516,45.2
23168,-48.0,0.509,44.9
23188,-47.6,0.506,45.1
23209,-47.2,0.5,45.2
23229,-46.9,0.492,45.0
23249,-46.4,0.484,44.6
23266,-46.0,0.476,44.3
23286,-45.4,0.468,44.3
23307,-44.9,0.462,44.5
23328,-44.4,0.455,44.8
23348,-43.9,0.445,44.9
23369,-43.3,0.437,44.7
23389,-42.7,0.427,44.4
23410,-42.1,0.42,43.8
23427,-41.4,0.411,43.8
23447,-40.6,0.402,44.1
23466,-39.8,0.395,44.2
23488,-39.0,0.384,44.7
23510,-38.2,0.377,44.8
23528,-37.5,0.368,44.5
23548,-36.7,0.359,44.6
23566,-35.8,0.349,44.1
23586,-34.8,0.341,43.5
23607,-33.8,0.334,43.5
23627,-32.8,0.324,44.0
23650,-31.8,0.315,44.2
23668,-30.7,0.306,44.1
23688,-29.6,0.296,43.7
23709,-28.4,0.289,43.5
23729,-27.2,0.279,43.6
23746,-26.0,0.271,43.8
23766,-24.7,0.263,43.5
23786,-23.3,0.253,43.7
23807,-22.0,0.245,43.7
23828,-20.7,0.239,43.5
23848,-19.4,0.23,44.2
23867,-18.2,0.219,45.0
23888,-17.0,0.211,44.4
23906,-15.7,0.203,43.3
23926,-14.4,0.196,42.9
23946,-13.3,0.187,43.8
23966,-12.1,0.179,44.8
23987,-11.0,0.169,45.1
24008,-10.0,0.162,44.9
24028,-9.1,0.153,44.8
24044,-8.2,0.146,45.0
24066,-7.5,0.137,45.6
24086,-6.8,0.129,45.7
24106,-6.2,0.12,45.2
24126,-5.6,0.113,44.6
24147,-5.1,0.108,44.4
24166,-4.6,0.099,45.5
24187,-4.2,0.092,45.6
24208,-3.9,0.087,44.8
24224,-3.6,0.084,45.0
24245,-3.3,0.076,45.2
24266,-3.0,0.07,44.7
24286,-2.7,0.066,43.7
24307,-2.5,0.062,44.2
24327,-2.3,0.057,45.3
24343,-2.1,0.052,45.2
24364,-2.0,0.048,44.6
24384,-1.8,0.044,44.3
24404,-1.6,0.041,44.3
24425,-1.5,0.037,44.5
24446,-1.4,0.035,44.6
24466,-1.3,0.032,44.9
24487,-1.2,0.029,44.8
24507,-1.1,0.026,44.6
24527,-1.0,0.025,44.5
24564,-0.9,0.022,44.7
24605,-0.8,0.02,44.6
24663,-0.7,0.018,44.8
24864,-0.8,0.029,47.3
24926,-0.9,0.035,48.7
24946,-1.0,0.037,48.7
24985,-1.1,0.043,48.6
25002,-1.2,0.047,48.8
25023,-1.4,0.053,49.3
25043,-1.6,0.06,50.5
25064,-1.9,0.063,50.6
25085,-2.1,0.071,48.6
25105,-2.3,0.082,47.5
25126,-2.6,0.084,50.8
25146,-2.9,0.087,50.0
25163,-3.1,0.096,48.7
25184,-3.5,0.103,49.8
25204,-3.9,0.107,50.9
25224,-4.3,0.117,50.0
25244,-4.8,0.128,49.0
25265,-5.3,0.129,51.7
25285,-5.8,0.14,49.8
25302,-6.4,0.147,48.2
25322,-7.0,0.153,51.0
25344,-7.6,0.163,50.0
25364,-8.4,0.17,49.8
25384,-9.1,0.175,50.7
25404,-10.0,0.191,49.5
25425,-11.0,0.195,50.4
25445,-12.1,0.198,53.7
25465,-13.3,0.214,49.1
25486,-14.5,0.22,49.6
25503,-15.6,0.225,51.9
25524,-16.9,0.241,49.8
25545,-18.2,0.247,51.0
25565,-19.6,0.252,53.0
25586,-21.1,0.266,49.6
25605,-22.4,0.274,50.5
25625,-23.9,0.285,51.5
25642,-25.3,0.296,49.6
25662,-26.7,0.3,51.0
25683,-28.1,0.316,50.6
25703,-29.3,0.321,49.8
25724,-30.6,0.33,50.9
25745,-31.8,0.34,49.7
25765,-32.9,0.349,50.4
25782,-33.9,0.366,50.1
25802,-35.0,0.371,50.8
25823,-36.1,0.38,51.4
25843,-37.0,0.389,49.8
25863,-37.9,0.395,50.0
25883,-38.6,0.404,49.9
25903,-39.3,0.415,49.8
25924,-40.0,0.424,50.0
25945,-40.7,0.432,51.3
25961,-41.4,0.438,51.6
25982,-42.1,0.449,51.1
26003,-42.7,0.459,50.2
26024,-43.4,0.466,50.7
26043,-44.0,0.472,51.7
26063,-44.6,0.477,50.9
26084,-45.0,0.486,49.8
26104,-45.5,0.494,49.6
26121,-45.8,0.501,50.4
26141,-46.2,0.508,51.2
26162,-46.6,0.512,51.3
26182,-47.0,0.521,50.9
26204,-47.4,0.526,50.8
26223,-47.8,0.531,51.0
26244,-48.1,0.536,50.6
26261,-48.4,0.543,50.0
26281,-48.6,0.548,50.1
26301,-48.9,0.554,50.8
26321,-49.1,0.559,50.9
26342,-49.4,0.561,51.1
26363,-49.6,0.565,51.0
26384,-49.8,0.57,50.5
26403,-50.0,0.574,50.2
26420,-50.1,0.577,50.3
26441,-50.2,0.58,50.5
26462,-50.4,0.583,50.6
26485,-50.5,0.587,50.5
26502,-50.6,0.588,50.8
26522,-50.8,0.589,50.7
26543,-50.9,0.592,50.3
26580,-51.0,0.594,50.3
26621,-51.1,0.594,50.1
26901,-51.0,0.578,46.9
26940,-50.9,0.574,46.3
26960,-50.8,0.57,46.1
26981,-50.6,0.565,45.8
27001,-50.4,0.563,45.4
27022,-50.2,0.558,45.5
27042,-49.9,0.553,45.7
27059,-49.7,0.548,45.7
27080,-49.4,0.538,45.4
27101,-49.1,0.53,45.4
27121,-48.8,0.523,45.0
27141,-48.5,0.522,45.0
27161,-48.1,0.516,45.0
27182,-47.7,0.508,45.2
27202,-47.4,0.499,45.1
27220,-47.0,0.492,44.8
27240,-46.5,0.486,44.5
27261,-46.1,0.479,44.4
27282,-45.6,0.472,44.7
27302,-45.1,0.462,44.8
27322,-44.6,0.456,44.5
27345,-44.1,0.446,44.1
27362,-43.5,0.438,44.3
27379,-42.9,0.431,44.2
27399,-42.2,0.422,44.2
27419,-41.5,0.415,44.2
27440,-40.8,0.405,44.3
27460,-40.1,0.396,44.8
27481,-39.4,0.387,44.4
27501,-38.6,0.378,44.2
27522,-37.8,0.368,44.0
27539,-36.9,0.361,44.1
27561,-36.0,0.352,44.3
27579,-35.1,0.344,43.9
27599,-34.2,0.335,44.0
27620,-33.2,0.326,44.2
27640,-32.1,0.317,43.9
27661,-31.0,0.308,43.4
27681,-29.9,0.3,43.6
27699,-28.7,0.291,43.6
27719,-27.5,0.282,43.8
27740,-26.2,0.275,43.7
27760,-25.0,0.264,43.8
27781,-23.7,0.256,44.4
27800,-22.5,0.247,44.0
27821,-21.2,0.24,43.6
27841,-19.9,0.231,43.7
27857,-18.6,0.223,43.7
27878,-17.3,0.216,43.8
27899,-16.1,0.206,43.6
27919,-14.8,0.197,43.7
27940,-13.6,0.19,44.2
27961,-12.4,0.18,44.9
27980,-11.3,0.173,44.8
27998,-10.3,0.164,44.2
28018,-9.4,0.157,44.8
28038,-8.5,0.147,45.8
28058,-7.8,0.14,45.6
28079,-7.1,0.132,44.8
28099,-6.4,0.124,45.0
28119,-5.8,0.115,45.1
28140,-5.3,0.109,45.0
28157,-4.8,0.102,45.1
28177,-4.4,0.096,45.1
28197,-4.0,0.091,45.1
28219,-3.7,0.084,45.2
28239,-3.4,0.076,44.8
28258,-3.1,0.071,43.9
28279,-2.8,0.066,44.1
28299,-2.5,0.062,45.0
28317,-2.3,0.058,45.4
28338,-2.2,0.053,45.2
28358,-2.0,0.048,44.9
28379,-1.9,0.044,44.0
28399,-1.7,0.041,43.7
28419,-1.5,0.038,44.3
28440,-1.4,0.035,44.9
28459,-1.3,0.032,45.2
28476,-1.2,0.03,45.2
28517,-1.1,0.025,44.0
28538,-1.0,0.022,44.1
28558,-0.9,0.021,44.6
28599,-0.8,0.02,45.0
28677,-0.7,0.018,44.6
28858,-0.8,0.027,47.0
28918,-0.9,0.035,48.6
28935,-1.0,0.037,48.7
28975,-1.1,0.042,48.6
28996,-1.2,0.044,48.7
29017,-1.3,0.052,49.0
29038,-1.5,0.057,50.3
29059,-1.8,0.062,50.8
29078,-2.1,0.071,48.7
29095,-2.3,0.074,48.8
29115,-2.5,0.076,49.7
29136,-2.7,0.088,48.1
29156,-3.0,0.098,49.2
29176,-3.4,0.099,53.0
29197,-3.9,0.104,50.8
29218,-4.2,0.114,47.5
29238,-4.6,0.121,48.6
29255,-5.0,0.131,50.4
29276,-5.6,0.134,51.5
29296,-6.2,0.145,50.8
29316,-6.9,0.157,48.9
29336,-7.6,0.158,51.4
29356,-8.3,0.167,50.8
29377,-9.1,0.18,47.2
29398,-9.9,0.186,49.7
29414,-10.7,0.192,52.0
29436,-11.8,0.205,50.5
29457,-12.8,0.209,51.3
29475,-14.0,0.218,51.6
29496,-15.1,0.233,49.2
29519,-16.4,0.235,51.9
29536,-17.7,0.247,52.1
29556,-19.2,0.261,49.6
29573,-20.6,0.264,52.7
29594,-22.1,0.274,51.3
29615,-23.6,0.288,48.5
29635,-25.0,0.294,51.4
29657,-26.4,0.304,50.8
29677,-27.8,0.316,49.3
29697,-29.1,0.324,50.8
29717,-30.4,0.332,49.8
29736,-31.5,0.334,50.1
29755,-32.6,0.349,50.0
29774,-33.7,0.357,49.6
29795,-34.7,0.365,51.6
29815,-35.8,0.376,50.4
29836,-36.7,0.387,49.7
29857,-37.6,0.393,50.6
29877,-38.5,0.402,50.6
29894,-39.2,0.413,49.7
29915,-40.0,0.42,50.4
29935,-40.7,0.428,50.7
29955,-41.3,0.438,50.4
29975,-42.0,0.446,50.5
29996,-42.6,0.454,51.1
30016,-43.2,0.461,51.4
30037,-43.8,0.471,50.8
30053,-44.4,0.478,50.5
30074,-44.9,0.484,50.7
30094,-45.4,0.492,50.5
30116,-45.8,0.498,50.3
30136,-46.2,0.505,50.6
30156,-46.6,0.512,50.6
30175,-46.9,0.519,51.1
30195,-47.3,0.525,51.1
30212,-47.7,0.531,50.9
30233,-48.0,0.537,51.0
30253,-48.3,0.541,50.8
30274,-48.6,0.545,50.3
30296,-48.8,0.552,50.2
30316,-49.0,0.556,50.6
30336,-49.2,0.561,50.9
30353,-49.5,0.567,51.1
30373,-49.7,0.57,51.4
30393,-50.0,0.572,51.3
30413,-50.2,0.575,50.1
30434,-50.4,0.58,49.3
30474,-50.5,0.586,50.2
30512,-50.6,0.589,50.8
30532,-50.7,0.591,50.9
30554,-50.9,0.594,51.0
30574,-51.0,0.594,50.8
30594,-51.1,0.593,50.3
30675,-51.2,0.594,50.0
30754,-51.1,0.592,49.5
30892,-51.0,0.58,46.8
30934,-50.9,0.576,46.5
30954,-50.8,0.572,46.2
30974,-50.7,0.566,45.9
30992,-50.5,0.561,45.7
31012,-50.3,0.556,45.4
31033,-50.0,0.552,45.2
31053,-49.7,0.549,45.1
31073,-49.5,0.541,45.5
31093,-49.2,0.534,45.8
31113,-48.9,0.53,45.5
31134,-48.6,0.522,45.2
31155,-48.3,0.516,45.0
31172,-47.9,0.51,44.7
31192,-47.5,0.503,44.7
31213,-47.1,0.495,44.6
31234,-46.7,0.488,44.5
31254,-46.2,0.478,44.7
31274,-45.7,0.472,44.9
31294,-45.3,0.465,44.5
31314,-44.8,0.459,44.9
31331,-44.3,0.45,44.7
31351,-43.8,0.44,44.3
31372,-43.2,0.433,43.9
31393,-42.5,0.424,43.8
31413,-41.8,0.415,43.9
31433,-41.0,0.407,43.8
31454,-40.3,0.4,44.0
31474,-39.5,0.389,44.7
31491,-38.7,0.379,45.1
31511,-37.9,0.372,44.4
31532,-37.1,0.363,43.9
31552,-36.3,0.356,44.2
31573,-35.4,0.345,44.5
31593,-34.5,0.337,44.3
31613,-33.5,0.328,43.5
31630,-32.5,0.319,43.4
31652,-31.4,0.31,43.5
31672,-30.2,0.302,43.5
31692,-29.0,0.291,43.4
31712,-27.8,0.284,44.0
31732,-26.6,0.278,44.0
31752,-25.4,0.268,44.1
31773,-24.1,0.26,44.0
31790,-22.9,0.25,43.7
31810,-21.6,0.241,43.8
31831,-20.3,0.234,43.7
31851,-19.1,0.224,43.9
31872,-17.8,0.217,43.7
31892,-16.5,0.208,43.7
31913,-15.2,0.201,43.3
31933,-14.0,0.192,43.6
31950,-12.8,0.184,45.0
31970,-11.7,0.176,45.3
31990,-10.8,0.167,45.1
32011,-9.8,0.158,44.8
32032,-8.9,0.151,44.4
32052,-8.0,0.142,44.2
32072,-7.2,0.134,45.1
32089,-6.6,0.128,45.9
32110,-6.0,0.119,45.7
32131,-5.5,0.11,45.4
32151,-5.0,0.104,44.8
32171,-4.5,0.097,44.3
32191,-4.1,0.091,44.7
32211,-3.8,0.085,45.3
32232,-3.5,0.079,45.3
32252,-3.2,0.073,44.8
32269,-2.9,0.068,44.2
32290,-2.6,0.064,44.4
32310,-2.4,0.059,44.9
32330,-2.2,0.054,44.8
32351,-2.0,0.049,44.5
32371,-1.9,0.046,44.6
32391,-1.7,0.042,44.5
32408,-1.6,0.038,44.4
32429,-1.4,0.035,44.4
32449,-1.3,0.032,44.5
32470,-1.2,0.031,44.9
32511,-1.1,0.026,44.6
32531,-1.0,0.025,44.4
32572,-0.9,0.021,44.5
32609,-0.8,0.019,44.7
32907,-0.9,0.033,48.4
32949,-1.0,0.037,48.7
32969,-1.1,0.041,48.6
32990,-1.2,0.043,48.6
33010,-1.3,0.048,48.9
33026,-1.5,0.058,49.4
33047,-1.7,0.059,51.2
33067,-2.0,0.064,50.5
33088,-2.2,0.073,47.6
33109,-2.4,0.077,48.0
33129,-2.7,0.086,49.3
33149,-3.0,0.091,51.1
33170,-3.4,0.097,51.3
33190,-3.8,0.106,48.7
33208,-4.1,0.11,49.2
33228,-4.5,0.118,49.6
33248,-4.9,0.13,48.6
33268,-5.5,0.136,51.4
33289,-6.1,0.137,53.0
33309,-6.7,0.152,48.5
33329,-7.3,0.161,48.1
33349,-8.0,0.164,51.0
33367,-8.7,0.176,49.3
33388,-9.6,0.187,49.9
33408,-10.5,0.194,53.0
33429,-11.5,0.202,50.2
33450,-12.6,0.212,49.4
33469,-13.6,0.217,52.1
33489,-14.9,0.227,50.1
33510,-16.1,0.231,50.9
33526,-17.4,0.245,51.6
33547,-18.8,0.249,50.9
33567,-20.1,0.258,52.2
33588,-21.6,0.268,49.7
33609,-23.1,0.275,51.3
33630,-24.5,0.285,51.4
33649,-25.8,0.301,48.5
33666,-27.1,0.307,50.3
33686,-28.5,0.313,51.7
33706,-29.8,0.328,49.6
33727,-31.0,0.335,49.9
33747,-32.2,0.344,50.9
33768,-33.3,0.352,50.3
33789,-34.4,0.363,50.3
33809,-35.4,0.371,50.3
33825,-36.4,0.382,50.5
33845,-37.3,0.39,50.9
33866,-38.2,0.399,50.2
33887,-39.0,0.41,49.9
33907,-39.8,0.417,50.7
33927,-40.5,0.426,50.8
33948,-41.2,0.433,50.2
33968,-41.8,0.443,50.4
33989,-42.4,0.451,50.6
34006,-43.0,0.459,50.8
34026,-43.6,0.466,51.1
34047,-44.1,0.473,50.8
34068,-44.7,0.482,50.7
34089,-45.2,0.488,50.8
34108,-45.6,0.494,51.0
34128,-46.1,0.504,50.3
34145,-46.5,0.509,50.5
34165,-46.8,0.515,50.8
34186,-47.2,0.521,50.5
34206,-47.5,0.528,50.7
34227,-47.8,0.533,51.0
34247,-48.1,0.539,50.9
34268,-48.4,0.544,50.7
34288,-48.7,0.548,50.7
34305,-48.9,0.554,50.7
34326,-49.2,0.559,50.8
34345,-49.4,0.564,51.0
34365,-49.6,0.565,51.2
34386,-49.8,0.569,50.9
34407,-50.0,0.574,50.5
34427,-50.2,0.578,50.5
34448,-50.3,0.581,50.3
34468,-50.5,0.583,50.6
34485,-50.6,0.585,50.6
34505,-50.7,0.588,50.3
34525,-50.8,0.588,50.3
34546,-50.9,0.591,50.4
34587,-51.0,0.592,50.5
34665,-51.1,0.594,50.5
34866,-51.0,0.581,47.4
34922,-50.9,0.575,46.3
34943,-50.8,0.571,46.1
34964,-50.7,0.569,45.9
34984,-50.6,0.563,45.7
35005,-50.3,0.558,45.3
35025,-50.1,0.553,45.2
35046,-49.8,0.548,45.4
35066,-49.5,0.542,45.4
35087,-49.2,0.537,45.3
35104,-48.9,0.531,45.4
35125,-48.6,0.523,45.3
35145,-48.3,0.515,45.0
35166,-48.0,0.51,44.9
35185,-47.6,0.504,44.6
35207,-47.2,0.497,44.6
35226,-46.7,0.488,44.6
35246,-46.3,0.481,44.5
35262,-45.8,0.475,44.4
35283,-45.3,0.466,44.7
35304,-44.9,0.46,44.6
35325,-44.4,0.451,44.6
35345,-43.8,0.442,44.5
35365,-43.3,0.433,44.2
35386,-42.6,0.426,43.7
35406,-41.9,0.417,43.6
35423,-41.2,0.409,44.2
35444,-40.5,0.401,44.5
35464,-39.8,0.391,44.6
35484,-39.0,0.383,44.7
35504,-38.3,0.373,44.4
35525,-37.4,0.366,43.8
35545,-36.5,0.356,43.6
35566,-35.6,0.349,43.8
35587,-34.6,0.339,43.8
35603,-33.7,0.329,43.9
35623,-32.6,0.321,43.9
35643,-31.6,0.312,43.6
35664,-30.5,0.304,43.8
35684,-29.3,0.295,43.9
35705,-28.2,0.286,43.8
35726,-27.0,0.278,43.7
35743,-25.7,0.268,43.5
35763,-24.4,0.261,43.4
35784,-23.2,0.253,43.6
35805,-21.9,0.244,44.0
35825,-20.6,0.235,44.1
35846,-19.3,0.227,43.6
35865,-18.1,0.218,43.6
35882,-16.8,0.211,43.5
35902,-15.5,0.201,43.2
35922,-14.2,0.194,44.1
35943,-13.1,0.186,44.4
35963,-12.0,0.178,44.9
35984,-11.0,0.169,45.2
36004,-10.0,0.161,44.7
36025,-9.1,0.151,44.4
36045,-8.2,0.143,44.2
36062,-7.4,0.136,44.5
36083,-6.7,0.128,45.7
36102,-6.1,0.119,46.2
36123,-5.6,0.112,45.4
36144,-5.1,0.106,44.6
36164,-4.6,0.098,44.6
36180,-4.2,0.092,44.9
36201,-3.9,0.086,45.0
36223,-3.5,0.08,44.7
36242,-3.2,0.075,44.6
36263,-3.0,0.07,44.9
36284,-2.7,0.064,44.7
36306,-2.5,0.059,44.2
36324,-2.3,0.055,44.2
36344,-2.1,0.051,44.7
36361,-1.9,0.047,45.0
36381,-1.8,0.043,44.7
36402,-1.7,0.04,44.2
36422,-1.5,0.037,44.2
36443,-1.4,0.033,44.5
36463,-1.3,0.031,44.7
36483,-1.2,0.029,44.8
36504,-1.1,0.026,44.7
36541,-1.0,0.022,44.5
36561,-0.9,0.021,44.4
36622,-0.8,0.019,44.6
36643,-0.7,0.009,44.6
