Time,Length,Pressure,Force
12,0.0,0.699,0.0
2338,0.1,0.699,0.2
2357,0.2,0.699,0.5
2385,0.4,0.698,0.8
2401,0.6,0.698,1.0
2418,0.8,0.699,1.4
2447,1.2,0.698,2.0
2464,1.5,0.699,2.8
2486,1.6,0.699,3.6
2505,1.7,0.699,4.1
2522,1.8,0.699,4.3
2537,2.0,0.699,4.6
2563,2.2,0.701,5.1
2574,2.4,0.701,5.7
2604,2.7,0.701,6.4
2623,2.9,0.699,7.1
2640,3.2,0.701,7.9
2666,3.5,0.701,8.8
2686,3.7,0.702,9.7
2705,4.0,0.702,10.7
2727,4.3,0.701,11.8
2733,4.5,0.702,12.7
2759,4.6,0.703,13.6
2781,4.8,0.703,14.3
2801,5.0,0.703,15.0
2822,5.1,0.704,15.8
2845,5.3,0.703,16.5
2859,5.5,0.703,17.2
2887,5.7,0.703,18.0
2907,6.0,0.704,19.0
2924,6.3,0.706,20.1
2944,6.6,0.704,21.6
2963,6.8,0.706,23.1
2985,7.0,0.706,24.2
3004,7.2,0.706,25.2
3026,7.5,0.706,26.3
3046,7.7,0.707,27.6
3062,7.9,0.707,28.9
3080,8.2,0.708,30.3
3104,8.5,0.708,31.8
3124,8.9,0.708,33.7
3145,9.1,0.709,35.9
3162,9.3,0.71,37.7
3179,9.5,0.71,39.1
3198,9.8,0.71,40.3
3226,9.9,0.71,41.6
3242,10.1,0.71,43.0
3262,10.2,0.712,43.9
3284,10.4,0.712,45.0
3305,10.6,0.712,46.2
3325,10.9,0.712,47.5
3345,11.2,0.712,49.1
3366,11.5,0.713,51.3
3375,11.7,0.713,53.5
3401,11.8,0.712,54.8
3423,12.0,0.712,55.7
3440,12.2,0.713,56.9
3456,12.4,0.712,58.4
3482,12.7,0.713,60.0
3503,13.0,0.713,61.8
3520,13.3,0.713,63.7
3546,13.7,0.713,66.0
3563,13.9,0.713,68.6
3583,14.1,0.713,70.7
3604,14.3,0.713,72.1
3624,14.5,0.713,73.2
3642,14.7,0.712,74.6
3664,14.8,0.712,76.1
3671,14.9,0.712,77.3
3705,15.0,0.712,77.9
3707,15.1,0.71,78.4
3739,15.3,0.712,79.1
3763,15.4,0.712,80.0
3784,15.7,0.712,81.2
3804,16.0,0.71,82.8
3818,16.3,0.712,85.0
3844,16.5,0.712,87.7
3865,16.6,0.712,89.5
3882,16.8,0.712,90.5
3900,17.0,0.713,91.7
3915,17.2,0.712,93.4
3941,17.5,0.712,95.2
3964,17.7,0.713,97.0
3974,18.0,0.713,99.1
4005,18.3,0.714,101.5
4025,18.6,0.714,104.1
4032,18.9,0.713,106.8
4061,19.0,0.714,108.8
4081,19.2,0.713,110.1
4102,19.3,0.713,111.2
4113,19.5,0.713,112.5
4144,19.7,0.713,113.9
4165,19.9,0.712,115.5
4181,20.0,0.71,116.7
4194,20.1,0.712,117.5
4210,20.3,0.71,118.3
4243,20.4,0.712,119.5
4262,20.7,0.713,121.1
4277,21.0,0.713,123.1
4302,21.3,0.713,125.9
4310,21.4,0.713,128.6
4344,21.5,0.713,129.9
4362,21.7,0.713,130.6
4381,21.9,0.713,131.8
4402,22.1,0.713,133.4
4423,22.3,0.713,135.1
4443,22.6,0.714,137.1
4460,22.9,0.714,139.5
4476,23.2,0.714,142.0
4502,23.5,0.714,144.9
4509,23.7,0.714,147.8
4541,23.8,0.713,150.0
4561,23.9,0.713,151.3
4573,24.1,0.713,152.0
4603,24.2,0.714,152.7
4616,24.4,0.712,154.0
4644,24.6,0.714,155.6
4662,24.7,0.712,157.1
4679,24.8,0.712,158.2
4698,24.9,0.71,158.8
4719,25.0,0.712,159.5
4742,25.1,0.712,160.3
4760,25.3,0.712,161.4
4782,25.5,0.713,163.0
4800,25.8,0.713,165.1
4824,26.1,0.713,167.9
4840,26.2,0.713,170.4
4860,26.3,0.712,171.8
4881,26.5,0.712,172.8
4899,26.6,0.712,173.9
4915,26.8,0.713,175.4
4930,27.0,0.713,177.1
4963,27.2,0.714,179.0
4966,27.5,0.713,181.2
5001,27.8,0.713,183.7
5015,28.1,0.713,186.3
5041,28.4,0.717,189.3
5062,28.5,0.715,192.3
5081,28.6,0.714,194.4
5101,28.7,0.714,195.3
5116,28.9,0.712,195.7
5142,29.0,0.712,196.5
5153,29.2,0.712,197.7
5180,29.4,0.713,199.3
5200,29.5,0.713,201.1
5222,29.7,0.712,202.8
5228,29.8,0.712,204.2
5262,29.9,0.713,205.1
5283,30.1,0.712,206.3
5301,30.4,0.712,208.0
5311,30.6,0.714,210.0
5339,30.9,0.714,212.7
5359,31.1,0.714,215.7
5379,31.2,0.714,218.1
5399,31.3,0.713,219.3
5410,31.4,0.712,219.7
5442,31.5,0.712,220.2
5462,31.6,0.712,221.1
5480,31.8,0.712,222.3
5500,32.0,0.713,223.8
5520,32.2,0.713,225.6
5534,32.4,0.713,227.8
5559,32.6,0.714,229.9
5579,32.9,0.715,232.4
5601,33.1,0.714,235.2
5623,33.3,0.714,238.0
5721,33.4,0.71,238.3
5741,33.7,0.71,238.8
5760,33.8,0.712,241.3
5770,33.9,0.712,243.8
5797,34.0,0.712,244.7
5820,34.1,0.712,245.1
5836,34.3,0.713,246.3
5852,34.5,0.712,248.1
5868,34.6,0.712,249.9
5901,34.7,0.712,251.1
5921,34.9,0.713,252.2
5942,35.1,0.714,254.1
5959,35.4,0.715,256.8
5980,35.7,0.717,260.1
6000,35.8,0.714,263.3
6021,35.9,0.714,265.1
6061,36.1,0.713,265.2
6081,36.2,0.713,265.8
6100,36.3,0.712,267.1
6118,36.5,0.713,268.4
6139,36.6,0.713,269.8
6160,36.8,0.712,271.4
6180,37.1,0.712,273.7
6200,37.3,0.714,276.1
6210,37.6,0.714,278.8
6228,37.8,0.715,281.7
6259,38.1,0.715,284.9
6274,38.3,0.715,287.7
6314,38.4,0.713,290.3
6360,38.5,0.712,289.5
6378,38.7,0.712,290.4
6401,38.8,0.712,291.7
6416,38.9,0.712,292.9
6433,39.1,0.712,294.1
6456,39.3,0.713,295.7
6470,39.5,0.713,297.7
6496,39.6,0.713,299.6
6518,39.7,0.713,301.0
6539,39.9,0.713,302.3
6559,40.1,0.713,303.9
6577,40.3,0.714,306.0
6598,40.6,0.714,308.7
6619,40.8,0.714,311.8
6679,40.9,0.712,313.1
6715,41.0,0.71,313.1
6732,41.1,0.71,313.2
6750,41.2,0.71,313.8
6766,41.4,0.712,315.0
6799,41.6,0.713,317.0
6819,41.8,0.714,319.7
6840,42.0,0.715,322.6
6860,42.3,0.714,325.4
6877,42.5,0.714,328.0
6896,42.7,0.715,330.5
6911,42.9,0.715,333.4
6938,43.1,0.714,335.8
7020,43.2,0.712,333.9
7036,43.3,0.712,334.5
7057,43.5,0.712,336.3
8022,43.3,0.704,329.7
8056,43.0,0.702,327.9
8073,42.8,0.701,321.0
8092,42.7,0.699,316.6
8118,42.5,0.698,314.0
8133,42.4,0.697,312.0
8158,42.2,0.696,309.6
8176,42.0,0.693,306.9
8196,41.8,0.691,303.7
8214,41.5,0.69,300.2
8238,41.3,0.688,296.6
8257,41.0,0.686,292.9
8277,40.7,0.682,289.0
8296,40.4,0.681,284.8
8315,40.2,0.679,280.2
8334,40.0,0.677,276.7
8354,39.8,0.676,274.0
8376,39.6,0.675,271.4
8396,39.3,0.674,268.8
8409,39.0,0.673,265.5
8435,38.7,0.669,261.5
8457,38.4,0.669,257.4
8473,38.3,0.665,253.5
8491,38.1,0.665,250.6
8506,38.0,0.665,248.9
8532,37.8,0.663,247.0
8555,37.6,0.664,244.3
8576,37.4,0.663,242.1
8596,37.2,0.662,240.1
8610,37.0,0.662,238.0
8626,36.8,0.662,236.0
8651,36.6,0.662,234.1
8662,36.4,0.662,232.1
8694,36.3,0.662,230.1
8712,36.1,0.662,228.3
8734,35.9,0.662,226.7
8754,35.6,0.662,224.9
8776,35.3,0.66,222.6
8793,35.1,0.66,219.6
8814,34.9,0.662,217.2
8834,34.7,0.66,215.4
8854,34.4,0.66,213.7
8869,34.1,0.66,211.2
8896,33.8,0.66,208.6
8906,33.5,0.66,205.4
8920,33.3,0.66,202.5
8953,33.1,0.66,200.3
8974,32.9,0.66,198.7
8987,32.7,0.662,196.8
9014,32.4,0.662,195.0
9035,32.2,0.662,193.2
9055,32.0,0.66,191.2
9075,31.7,0.662,189.2
9096,31.5,0.66,186.9
9112,31.2,0.66,184.8
9129,30.9,0.662,182.5
9147,30.6,0.66,179.8
9169,30.4,0.662,176.6
9187,30.2,0.66,174.5
9215,29.9,0.662,172.8
9232,29.7,0.66,170.8
9252,29.3,0.66,168.7
9273,29.0,0.66,165.8
9292,28.7,0.66,162.9
9310,28.5,0.66,159.6
9328,28.3,0.662,157.7
9354,28.1,0.662,156.9
9376,27.9,0.662,155.6
9395,27.7,0.662,153.8
9407,27.5,0.662,151.8
9432,27.2,0.663,150.2
9452,27.0,0.662,148.5
9473,26.8,0.662,146.7
9494,26.5,0.663,144.8
9514,26.3,0.662,143.2
9531,26.0,0.663,141.3
9551,25.8,0.66,139.2
9572,25.5,0.662,136.8
9591,25.3,0.663,134.7
9610,25.1,0.662,133.1
9630,24.8,0.662,131.4
9653,24.6,0.662,129.5
9673,24.3,0.66,127.2
9694,23.9,0.662,124.9
9715,23.7,0.663,122.4
9726,23.5,0.662,120.1
9752,23.3,0.663,118.5
9759,23.1,0.663,117.0
9792,22.8,0.662,115.3
9812,22.6,0.663,113.6
9833,22.4,0.662,111.8
9854,22.2,0.663,109.9
9871,21.9,0.663,108.2
9891,21.7,0.663,106.5
9912,21.5,0.664,104.8
9932,21.3,0.663,103.2
9952,21.0,0.663,101.5
9963,20.8,0.664,99.6
9994,20.6,0.663,97.7
10014,20.3,0.663,96.0
10027,20.1,0.663,94.4
10047,19.9,0.663,92.7
10059,19.6,0.663,91.0
10092,19.3,0.663,88.8
10112,19.0,0.663,86.8
10133,18.8,0.663,84.6
10150,18.7,0.663,82.5
10166,18.5,0.664,81.2
10188,18.3,0.663,80.4
10210,18.1,0.663,78.8
10232,17.9,0.664,77.1
10253,17.7,0.663,75.6
10267,17.5,0.664,74.2
10292,17.3,0.663,72.6
10311,17.1,0.663,71.1
10333,16.9,0.664,69.8
10354,16.7,0.664,68.4
10367,16.5,0.664,67.2
10385,16.3,0.664,65.8
10405,16.0,0.663,64.2
10417,15.8,0.664,62.3
10450,15.6,0.664,60.2
10469,15.3,0.664,58.6
10481,15.1,0.664,57.1
10507,14.8,0.663,55.5
10530,14.5,0.663,53.5
10550,14.2,0.664,51.5
10571,14.0,0.663,49.4
10584,13.8,0.663,47.5
10610,13.7,0.664,46.2
10630,13.4,0.664,45.3
10652,13.2,0.664,43.9
10668,13.0,0.664,42.3
10688,12.8,0.664,40.9
10705,12.5,0.664,39.5
10730,12.3,0.665,38.0
10751,12.1,0.664,36.6
10769,11.9,0.664,35.4
10792,11.7,0.665,34.1
10812,11.5,0.665,33.0
10819,11.3,0.665,31.8
10845,11.0,0.664,30.4
10869,10.8,0.664,29.0
10890,10.6,0.664,27.8
10907,10.4,0.665,26.8
10928,10.2,0.664,25.5
10952,9.9,0.665,24.6
10971,9.7,0.664,23.4
10988,9.4,0.665,22.2
11009,9.2,0.664,20.9
11030,8.9,0.665,19.7
11050,8.7,0.665,18.5
11071,8.5,0.665,17.6
11087,8.3,0.666,16.8
11105,8.1,0.665,16.0
11129,7.9,0.665,15.1
11135,7.7,0.665,14.4
11167,7.5,0.666,13.6
11190,7.3,0.665,12.8
11210,7.2,0.665,12.1
11230,7.0,0.665,11.5
11251,6.8,0.666,10.8
11271,6.6,0.666,10.2
11288,6.4,0.666,9.7
11307,6.2,0.666,9.1
11325,6.0,0.665,8.5
11338,5.8,0.666,7.8
11371,5.6,0.666,7.2
11386,5.4,0.666,6.5
11411,5.2,0.666,5.8
11431,4.9,0.666,5.2
11451,4.7,0.665,4.5
11467,4.5,0.668,4.0
11483,4.3,0.668,3.5
11500,4.1,0.666,3.1
11520,3.9,0.668,2.7
11549,3.7,0.666,2.3
11563,3.5,0.666,1.9
11589,3.3,0.666,1.4
11611,3.2,0.666,1.1
11627,3.0,0.668,0.8
11648,2.8,0.668,0.5
11668,2.7,0.668,0.4
11688,2.5,0.668,0.2
11708,2.4,0.668,0.0
11730,2.3,0.668,0.1
11750,2.1,0.668,0.3
11763,2.0,0.668,0.5
11779,1.9,0.668,0.6
11806,1.7,0.668,0.7
11828,1.6,0.668,0.9
11849,1.4,0.668,0.9
11869,1.2,0.668,1.0
11889,1.1,0.669,1.1
11910,1.0,0.668,1.2
11913,0.8,0.669,1.2
11946,0.7,0.668,1.3
11968,0.6,0.668,1.4
11989,0.4,0.669,1.4
12006,0.3,0.669,1.5
12020,0.1,0.669,1.3
12049,0.0,0.668,1.3
12069,-0.1,0.669,1.4
12086,-0.2,0.67,1.3
12107,-0.3,0.668,1.4
12124,-0.4,0.669,1.4
