time,length,pressure,force,time_contraction,pressure_contraction,length_contraction,force_contraction,time_extension,pressure_extension,length_extension,force_extension,estimated_contraction_length,estimated_extension_length,Estimated_Stretched_Length_Contraction,Estimated_Unstretched_Length_Contraction,Estimated_Stretched_Length_Extension,Estimated_Unstretched_Length_Extension,Estimated_Length_Contraction,Estimated_Length_Extension,real_length_contraction,Real_Estimated_Length_Contraction,real_length_extension,Real_Estimated_Length_Extension,real_length,time_elapsed,Error_Percentage_Contraction,Error_Percentage_Extension,,
10.015,155.2,0.428,46.5,0,0.428,182.2,46.5,,,,,156.1365855,,14.08531052,149.14608,,,163.2313905,,155.2,153.2313905,,,155.2,0,-1.268433943,,0.000160892,0.004856053
10.034,155.2,0.428,46.6,0.019,0.428,182.2,46.6,,,,,156.1418866,,14.11189046,149.14608,,,163.2579705,,155.2,153.2579705,,,155.2,0.019,-1.251307694,,0.000156577,
10.059,155.2,0.432,46.6,0.044,0.432,182.2,46.6,,,,,156.0638883,,14.10084587,148.99952,,,163.1003659,,155.2,153.1003659,,,155.2,0.044,-1.352857045,,0.000183022,
10.079,155.1,0.433,46.9,0.064,0.433,182.1,46.9,,,,,156.0604142,,14.17750756,148.96288,,,163.1403876,,155.1,153.1403876,,,155.1,0.064,-1.263450963,,0.000159631,
10.099,155.1,0.435,47.5,0.084,0.435,182.1,47.5,,,,,156.0534973,,14.33016657,148.8896,,,163.2197666,,155.1,153.2197666,,,155.1,0.084,-1.212271713,,0.00014696,
10.116,155.1,0.438,48.1,0.101,0.438,182.1,48.1,,,,,156.0266562,,14.47897826,148.77968,,,163.2586583,,155.1,153.2586583,,,155.1,0.101,-1.187196477,,0.000140944,
10.137,155.1,0.44,48.6,0.122,0.44,182.1,48.6,,,,,156.0142094,,14.60369471,148.7064,,,163.3100947,,155.1,153.3100947,,,155.1,0.122,-1.154033069,,0.000133179,
10.146,155,0.443,49.2,0.131,0.443,182,49.2,,,,,155.9870849,,14.75061005,148.59648,,,163.3470901,,155,153.3470901,,,155,0.131,-1.066393516,,0.00011372,
10.176,154.8,0.445,49.6,0.161,0.445,181.8,49.6,,,,,155.9688877,,14.84796549,148.5232,,,163.3711655,,154.8,153.3711655,,,154.8,0.161,-0.923019707,,8.52E-05,
10.193,154.6,0.449,49.7,0.178,0.449,181.6,49.7,,,,,155.8918787,,14.86116376,148.37664,,,163.2378038,,154.6,153.2378038,,,154.6,0.178,-0.881110117,,7.76E-05,
10.218,154.4,0.45,49.8,0.203,0.45,181.4,49.8,,,,,155.8767032,,14.88377262,148.34,,,163.2237726,,154.4,153.2237726,,,154.4,0.203,-0.761805295,,5.80E-05,
10.232,154.2,0.456,49.5,0.217,0.456,181.2,49.5,,,,,155.730203,,14.78796081,148.12016,,,162.9081208,,154.2,152.9081208,,,154.2,0.217,-0.837794549,,7.02E-05,
10.257,153.9,0.46,49.2,0.242,0.46,180.9,49.2,,,,,155.6230368,,14.69884021,147.9736,,,162.6724402,,153.9,152.6724402,,,153.9,0.242,-0.79763469,,6.36E-05,
10.277,153.7,0.461,49.6,0.262,0.461,180.7,49.6,,,,,155.6252242,,14.79833928,147.93696,,,162.7352993,,153.7,152.7352993,,,153.7,0.262,-0.627651734,,3.94E-05,
10.297,153.4,0.465,49.5,0.282,0.465,180.4,49.5,,,,,155.5276906,,14.76069916,147.7904,,,162.5510992,,153.4,152.5510992,,,153.4,0.282,-0.55339038,,3.06E-05,
10.317,153.2,0.468,48.9,0.302,0.468,180.2,48.9,,,,,155.4190473,,14.59853344,147.68048,,,162.2790134,,153.2,152.2790134,,,153.2,0.302,-0.601166161,,3.61E-05,
10.338,152.9,0.473,49.1,0.323,0.473,179.9,49.1,,,,,155.3119654,,14.63520671,147.49728,,,162.1324867,,152.9,152.1324867,,,152.9,0.323,-0.501970757,,2.52E-05,
10.357,152.7,0.475,49.5,0.342,0.475,179.7,49.5,,,,,155.2897496,,14.7311024,147.424,,,162.1551024,,152.7,152.1551024,,,152.7,0.342,-0.356841912,,1.27E-05,
10.378,152.5,0.478,49.3,0.363,0.478,179.5,49.3,,,,,155.2020686,,14.67167601,147.31408,,,161.985756,,152.5,151.985756,,,152.5,0.363,-0.337209171,,1.14E-05,
10.394,152.3,0.483,49.1,0.379,0.483,179.3,49.1,,,,,155.0613937,,14.60682061,147.13088,,,161.7377006,,152.3,151.7377006,,,152.3,0.379,-0.369205116,,1.36E-05,
10.407,152,0.489,49.3,0.392,0.489,179,49.3,,,,,154.918581,,14.64053009,146.91104,,,161.5515701,,152,151.5515701,,,152,0.392,-0.295019675,,8.70E-06,
10.434,151.8,0.493,49.5,0.419,0.493,178.8,49.5,,,,,154.8258238,,14.67963347,146.76448,,,161.4441135,,151.8,151.4441135,,,151.8,0.419,-0.234444357,,5.50E-06,
10.443,151.6,0.495,49.7,0.428,0.495,178.6,49.7,,,,,154.7861771,,14.72414972,146.6912,,,161.4153497,,151.6,151.4153497,,,151.6,0.428,-0.121800978,,1.48E-06,
10.476,151.3,0.5,49.5,0.461,0.5,178.3,49.5,,,,,154.6325957,,14.66023351,146.508,,,161.1682335,,151.3,151.1682335,,,151.3,0.461,-0.087089552,,7.58E-07,
10.498,151.1,0.506,49.5,0.483,0.506,178.1,49.5,,,,,154.4610871,,14.64387525,146.28816,,,160.9320353,,151.1,150.9320353,,,151.1,0.483,-0.111161314,,1.24E-06,
10.518,150.8,0.508,49.8,0.503,0.508,177.8,49.8,,,,,154.4264249,,14.71300317,146.21488,,,160.9278832,,150.8,150.9278832,,,150.8,0.503,0.084803162,,7.19E-07,
10.539,150.6,0.511,49.6,0.524,0.511,177.6,49.6,,,,,154.3219826,,14.65524601,146.10496,,,160.760206,,150.6,150.760206,,,150.6,0.524,0.106378493,,1.13E-06,
10.554,150.3,0.517,49.2,0.539,0.517,177.3,49.2,,,,,154.1073153,,14.54024927,145.88512,,,160.4253693,,150.3,150.4253693,,,150.3,0.539,0.083412689,,6.96E-07,
10.573,150.1,0.521,49.3,0.558,0.521,177.1,49.3,,,,,153.9909892,,14.55467206,145.73856,,,160.2932321,,150.1,150.2932321,,,150.1,0.558,0.128735547,,1.66E-06,
10.589,149.9,0.526,49.8,0.574,0.526,176.9,49.8,,,,,153.874876,,14.66485595,145.55536,,,160.2202159,,149.9,150.2202159,,,149.9,0.574,0.213619713,,4.56E-06,
10.616,149.6,0.53,49.5,0.601,0.53,176.6,49.5,,,,,153.7188191,,14.5808943,145.4088,,,159.9896943,,149.6,149.9896943,,,149.6,0.601,0.260490842,,6.79E-06,
10.638,149.4,0.536,49.5,0.623,0.536,176.4,49.5,,,,,153.5187278,,14.56575217,145.18896,,,159.7547122,,149.4,149.7547122,,,149.4,0.623,0.237424481,,5.64E-06,
10.655,149.2,0.539,50,0.64,0.539,176.2,50,,,,,153.4624325,,14.68015218,145.07904,,,159.7591922,,149.2,149.7591922,,,149.2,0.64,0.374793684,,1.40E-05,
10.679,148.9,0.544,49.8,0.664,0.544,175.9,49.8,,,,,153.2708873,,14.61890401,144.89584,,,159.514744,,148.9,149.514744,,,148.9,0.664,0.412856959,,1.70E-05,
10.699,148.7,0.552,49.5,0.684,0.552,175.7,49.5,,,,,152.9555844,,14.52652935,144.60272,,,159.1292493,,148.7,149.1292493,,,148.7,0.684,0.288668023,,8.33E-06,
10.718,148.4,0.556,49.9,0.703,0.556,175.4,49.9,,,,,152.8478044,,14.61358803,144.45616,,,159.069748,,148.4,149.069748,,,148.4,0.703,0.451312688,,2.04E-05,
10.739,148.2,0.559,49.9,0.724,0.559,175.2,49.9,,,,,152.7357808,,14.60633457,144.34624,,,158.9525746,,148.2,148.9525746,,,148.2,0.724,0.5078101,,2.58E-05,
10.756,148,0.566,49.3,0.741,0.566,175,49.3,,,,,152.4055233,,14.44542589,144.08976,,,158.5351859,,148,148.5351859,,,148,0.741,0.36161209,,1.31E-05,
10.769,147.8,0.571,49.4,0.754,0.571,174.8,49.4,,,,,152.2183279,,14.45810356,143.90656,,,158.3646636,,147.8,148.3646636,,,147.8,0.754,0.38204571,,1.46E-05,
10.796,147.5,0.575,49.8,0.781,0.575,174.5,49.8,,,,,152.1004427,,14.54476399,143.76,,,158.304764,,147.5,148.304764,,,147.5,0.781,0.545602705,,2.98E-05,
10.812,147.3,0.581,49.5,0.797,0.581,174.3,49.5,,,,,151.8204868,,14.45963703,143.54016,,,157.999797,,147.3,147.999797,,,147.3,0.797,0.475082843,,2.26E-05,
10.831,147.1,0.586,49.2,0.816,0.586,174.1,49.2,,,,,151.5748967,,14.37717352,143.35696,,,157.7341335,,147.1,147.7341335,,,147.1,0.816,0.431090087,,1.86E-05,
10.857,146.9,0.591,49.4,0.842,0.591,173.9,49.4,,,,,151.3816476,,14.41405881,143.17376,,,157.5878188,,146.9,147.5878188,,,146.9,0.842,0.468222469,,2.19E-05,
10.879,146.7,0.594,49.7,0.864,0.594,173.7,49.7,,,,,151.2851668,,14.47871908,143.06384,,,157.5425591,,146.7,147.5425591,,,146.7,0.864,0.574341565,,3.30E-05,
10.898,146.5,0.599,49.5,0.883,0.599,173.5,49.5,,,,,151.0379495,,14.42077535,142.88064,,,157.3014154,,146.5,147.3014154,,,146.5,0.883,0.547041195,,2.99E-05,
10.915,146.3,0.604,49.3,0.9,0.604,173.3,49.3,,,,,150.7847972,,14.36315739,142.69744,,,157.0605974,,146.3,147.0605974,,,146.3,0.9,0.519888851,,2.70E-05,
10.936,146.1,0.608,49.3,0.921,0.608,173.1,49.3,,,,,150.5981288,,14.35501272,142.55088,,,156.9058927,,146.1,146.9058927,,,146.1,0.921,0.551603502,,3.04E-05,
10.957,145.9,0.614,49.2,0.942,0.614,172.9,49.2,,,,,150.2992531,,14.31948042,142.33104,,,156.6505204,,145.9,146.6505204,,,145.9,0.942,0.514407418,,2.65E-05,
10.977,145.7,0.62,49.3,0.962,0.62,172.7,49.3,,,,,150.0190176,,14.33115702,142.1112,,,156.442357,,145.7,146.442357,,,145.7,0.962,0.509510649,,2.60E-05,
10.998,145.5,0.622,49.6,0.983,0.622,172.5,49.6,,,,,149.9596776,,14.39735227,142.03792,,,156.4352723,,145.5,146.4352723,,,145.5,0.983,0.642798812,,4.13E-05,
11.005,145.3,0.626,49.3,0.99,0.626,172.3,49.3,,,,,149.7185441,,14.31955224,141.89136,,,156.2109122,,145.3,146.2109122,,,145.3,0.99,0.626918266,,3.93E-05,
11.038,145.2,0.633,48.9,1.023,0.633,172.2,48.9,,,,,149.3026288,,14.21307543,141.63488,,,155.8479554,,145.2,145.8479554,,,145.2,1.023,0.4462503,,1.99E-05,
11.059,145,0.637,49.3,1.044,0.637,172,49.3,,,,,149.148382,,14.29883133,141.48832,,,155.7871513,,145,145.7871513,,,145,1.044,0.542862988,,2.95E-05,
11.076,144.8,0.642,49.5,1.061,0.642,171.8,49.5,,,,,148.9097667,,14.33592749,141.30512,,,155.6410475,,144.8,145.6410475,,,144.8,1.061,0.5808339,,3.37E-05,
11.093,144.7,0.648,49.1,1.078,0.648,171.7,49.1,,,,,148.5230736,,14.23260002,141.08528,,,155.31788,,144.7,145.31788,,,144.7,1.078,0.427007613,,1.82E-05,
11.117,144.5,0.654,49.3,1.102,0.654,171.5,49.3,,,,,148.216947,,14.26820582,140.86544,,,155.1336458,,144.5,145.1336458,,,144.5,1.102,0.438509216,,1.92E-05,
11.136,144.3,0.658,49.5,1.121,0.658,171.3,49.5,,,,,148.0195236,,14.30716291,140.71888,,,155.0260429,,144.3,145.0260429,,,144.3,1.121,0.503148243,,2.53E-05,
11.156,144.2,0.663,49.4,1.141,0.663,171.2,49.4,,,,,147.7142065,,14.27558649,140.53568,,,154.8112665,,144.2,144.8112665,,,144.2,1.141,0.423901868,,1.80E-05,
11.178,144,0.669,49.3,1.163,0.669,171,49.3,,,,,147.342911,,14.2425762,140.31584,,,154.5584162,,144,144.5584162,,,144,1.163,0.387789027,,1.50E-05,
11.198,143.9,0.673,49.4,1.183,0.673,170.9,49.4,,,,,147.1176949,,14.25876508,140.16928,,,154.4280451,,143.9,144.4280451,,,143.9,1.183,0.366952803,,1.35E-05,
11.212,143.7,0.676,49.5,1.197,0.676,170.7,49.5,,,,,146.9508446,,14.27658297,140.05936,,,154.335943,,143.7,144.335943,,,143.7,1.197,0.442549043,,1.96E-05,
11.228,143.6,0.68,49.4,1.213,0.68,170.6,49.4,,,,,146.6867288,,14.24733155,139.9128,,,154.1601316,,143.6,144.1601316,,,143.6,1.213,0.390063755,,1.52E-05,
11.255,143.4,0.685,49.1,1.24,0.685,170.4,49.1,,,,,146.320784,,14.17124502,139.7296,,,153.900845,,143.4,143.900845,,,143.4,1.24,0.349264311,,1.22E-05,
11.276,143.3,0.69,49.2,1.261,0.69,170.3,49.2,,,,,146.0167913,,14.18621457,139.5464,,,153.7326146,,143.3,143.7326146,,,143.3,1.261,0.301894328,,9.11E-06,
11.294,143.2,0.693,49.4,1.279,0.693,170.2,49.4,,,,,145.8565079,,14.22683845,139.43648,,,153.6633184,,143.2,143.6633184,,,143.2,1.279,0.323546403,,1.05E-05,
11.308,143.1,0.699,49.5,1.293,0.699,170.1,49.5,,,,,145.47797,,14.24021192,139.21664,,,153.4568519,,143.1,143.4568519,,,143.1,1.293,0.249372409,,6.22E-06,
11.337,142.9,0.701,49.7,1.322,0.701,169.9,49.7,,,,,145.3801395,,14.28210586,139.14336,,,153.4254659,,142.9,143.4254659,,,142.9,1.322,0.367715788,,1.35E-05,
11.357,142.8,0.706,49.5,1.342,0.706,169.8,49.5,,,,,145.0050752,,14.2297376,138.96016,,,153.1898976,,142.8,143.1898976,,,142.8,1.342,0.273037536,,7.45E-06,
11.374,142.7,0.712,49.3,1.359,0.712,169.7,49.3,,,,,144.5527686,,14.17620683,138.74032,,,152.9165268,,142.7,142.9165268,,,142.7,1.359,0.151735689,,2.30E-06,
11.395,142.6,0.715,49.5,1.38,0.715,169.6,49.5,,,,,144.3797758,,14.21667515,138.6304,,,152.8470752,,142.6,142.8470752,,,142.6,1.38,0.173264484,,3.00E-06,
11.415,142.5,0.72,49.5,1.4,0.72,169.5,49.5,,,,,144.0238758,,14.20961401,138.4472,,,152.656814,,142.5,142.656814,,,142.5,1.4,0.110044918,,1.21E-06,
11.434,142.4,0.723,49.6,1.419,0.723,169.4,49.6,,,,,143.8269077,,14.22768802,138.33728,,,152.564968,,142.4,142.564968,,,142.4,1.419,0.11584833,,1.34E-06,
11.452,142.3,0.726,49.7,1.437,0.726,169.3,49.7,,,,,143.6281033,,14.24573126,138.22736,,,152.4730913,,142.3,142.4730913,,,142.3,1.437,0.12163827,,1.48E-06,
11.472,142.2,0.729,49.6,1.457,0.729,169.2,49.6,,,,,143.3876566,,14.21943875,138.11744,,,152.3368788,,142.2,142.3368788,,,142.2,1.457,0.096257913,,9.27E-07,
11.498,142.1,0.735,49.5,1.483,0.735,169.1,49.5,,,,,142.9190727,,14.1892646,137.8976,,,152.0868646,,142.1,142.0868646,,,142.1,1.483,-0.009243775,,8.54E-09,
11.516,142,0.739,49.5,1.501,0.739,169,49.5,,,,,142.614928,,14.18404837,137.75104,,,151.9350884,,142,141.9350884,,,142,1.501,-0.045712412,,2.09E-07,
11.532,141.9,0.741,49.7,1.517,0.741,168.9,49.7,,,,,142.5028402,,14.22558479,137.67776,,,151.9033448,,141.9,141.9033448,,,141.9,1.517,0.002357143,,5.56E-10,
11.556,141.8,0.745,49.7,1.541,0.745,168.8,49.7,,,,,142.1931511,,14.2204231,137.5312,,,151.7516231,,141.8,141.7516231,,,141.8,1.541,-0.03411629,,1.16E-07,
11.575,141.7,0.748,49.6,1.56,0.748,168.7,49.6,,,,,141.9369549,,14.19463248,137.42128,,,151.6159125,,141.7,141.6159125,,,141.7,1.56,-0.059341932,,3.52E-07,
11.595,141.6,0.751,49.6,1.58,0.751,168.6,49.6,,,,,141.6994633,,14.19089765,137.31136,,,151.5022576,,141.6,141.5022576,,,141.6,1.58,-0.069027087,,4.76E-07,
11.615,141.6,0.753,49.7,1.6,0.753,168.6,49.7,,,,,141.5614363,,14.21036453,137.23808,,,151.4484445,,141.6,141.4484445,,,141.6,1.6,-0.107030698,,1.15E-06,
11.636,141.5,0.757,49.6,1.621,0.757,168.5,49.6,,,,,141.2174711,,14.18357607,137.09152,,,151.2750961,,141.5,141.2750961,,,141.5,1.621,-0.158942704,,2.53E-06,
11.656,141.4,0.761,49.6,1.641,0.761,168.4,49.6,,,,,140.8909138,,14.17880448,136.94496,,,151.1237645,,141.4,141.1237645,,,141.4,1.641,-0.195357509,,3.82E-06,
11.676,141.3,0.763,49.7,1.661,0.763,168.3,49.7,,,,,140.748377,,14.19828585,136.87168,,,151.0699659,,141.3,141.0699659,,,141.3,1.661,-0.162798405,,2.65E-06,
11.698,141.3,0.765,49.6,1.683,0.765,168.3,49.6,,,,,140.5601411,,14.17412025,136.7984,,,150.9725202,,141.3,140.9725202,,,141.3,1.683,-0.231762034,,5.37E-06,
11.703,141.2,0.768,49.5,1.688,0.768,168.2,49.5,,,,,140.2865674,,14.14885535,136.68848,,,150.8373353,,141.2,140.8373353,,,141.2,1.688,-0.256844656,,6.60E-06,
11.735,141.2,0.77,49.7,1.72,0.77,168.2,49.7,,,,,140.1635413,,14.1901563,136.6152,,,150.8053563,,141.2,140.8053563,,,141.2,1.72,-0.279492709,,7.81E-06,
11.754,141.1,0.773,49.8,1.739,0.773,168.1,49.8,,,,,139.9319337,,14.20847333,136.50528,,,150.7137533,,141.1,140.7137533,,,141.1,1.739,-0.273739668,,7.49E-06,
11.776,141.1,0.775,49.8,1.761,0.775,168.1,49.8,,,,,139.7609785,,14.20621376,136.432,,,150.6382138,,141.1,140.6382138,,,141.1,1.761,-0.327275861,,1.07E-05,
11.789,141,0.776,49.8,1.774,0.776,168,49.8,,,,,139.6750973,,14.20509215,136.39536,,,150.6004522,,141,140.6004522,,,141,1.774,-0.283367268,,8.03E-06,
11.816,141,0.779,49.8,1.801,0.779,168,49.8,,,,,139.4158338,,14.20175999,136.28544,,,150.4872,,141,140.4872,,,141,1.801,-0.363687948,,1.32E-05,
11.837,140.9,0.781,49.9,1.822,0.781,167.9,49.9,,,,,139.2652494,,14.22118958,136.21216,,,150.4333496,,140.9,140.4333496,,,140.9,1.822,-0.331192633,,1.10E-05,
11.853,140.9,0.783,49.9,1.838,0.783,167.9,49.9,,,,,139.0901167,,14.21899869,136.13888,,,150.3578787,,140.9,140.3578787,,,140.9,1.838,-0.384756075,,1.48E-05,
11.873,140.8,0.785,49.8,1.858,0.785,167.8,49.8,,,,,138.889979,,14.19524245,136.0656,,,150.2608424,,140.8,140.2608424,,,140.8,1.858,-0.382924399,,1.47E-05,
11.895,140.8,0.786,49.7,1.88,0.786,167.8,49.7,,,,,138.7773673,,14.17257561,136.02896,,,150.2015356,,140.8,140.2015356,,,140.8,1.88,-0.425045734,,1.81E-05,
11.915,140.7,0.789,49.7,1.9,0.789,167.7,49.7,,,,,138.5097005,,14.16943366,135.91904,,,150.0884737,,140.7,140.0884737,,,140.7,1.9,-0.43463137,,1.89E-05,
11.936,140.7,0.791,49.7,1.921,0.791,167.7,49.7,,,,,138.3298796,,14.16736604,135.84576,,,150.013126,,140.7,140.013126,,,140.7,1.921,-0.48818334,,2.38E-05,
11.956,140.6,0.791,49.7,1.941,0.791,167.6,49.7,,,,,138.3298796,,14.16736604,135.84576,,,150.013126,,140.6,140.013126,,,140.6,1.941,-0.417406799,,1.74E-05,
11.961,140.6,0.791,49.6,1.946,0.791,167.6,49.6,,,,,138.3054592,,14.14579024,135.84576,,,149.9915502,,140.6,139.9915502,,,140.6,1.946,-0.43275232,,1.87E-05,
11.996,140.6,0.793,49.4,1.981,0.793,167.6,49.4,,,,,138.0751582,,14.10058148,135.77248,,,149.8730615,,140.6,139.8730615,,,140.6,1.981,-0.517025975,,2.67E-05,
12.013,140.6,0.793,49.5,1.998,0.793,167.6,49.5,,,,,138.0997808,,14.12218279,135.77248,,,149.8946628,,140.6,139.8946628,,,140.6,1.998,-0.501662313,,2.52E-05,
12.034,140.5,0.795,49.6,2.019,0.795,167.5,49.6,,,,,137.9421903,,14.14175584,135.6992,,,149.8409558,,140.5,139.8409558,,,140.5,2.019,-0.469070579,,2.20E-05,
12.054,140.5,0.796,49.6,2.039,0.796,167.5,49.6,,,,,137.8506789,,14.14076068,135.66256,,,149.8033207,,140.5,139.8033207,,,140.5,2.039,-0.49585717,,2.46E-05,
12.075,140.5,0.797,49.5,2.06,0.797,167.5,49.5,,,,,137.7339808,,14.11822736,135.62592,,,149.7441474,,140.5,139.7441474,,,140.5,2.06,-0.537973406,,2.89E-05,
12.095,140.5,0.798,49.5,2.08,0.798,167.5,49.5,,,,,137.6418341,,14.11725191,135.58928,,,149.7065319,,140.5,139.7065319,,,140.5,2.08,-0.564745973,,3.19E-05,
12.115,140.4,0.798,49.5,2.1,0.798,167.4,49.5,,,,,137.6418341,,14.11725191,135.58928,,,149.7065319,,140.4,139.7065319,,,140.4,2.1,-0.493923143,,2.44E-05,
12.136,140.4,0.8,49.4,2.121,0.8,167.4,49.4,,,,,137.4315354,,14.09377849,135.516,,,149.6097785,,140.4,139.6097785,,,140.4,2.121,-0.562835836,,3.17E-05,
12.156,140.4,0.8,49.4,,,,,2.141,0.8,167.4,49.4,,137.3388346,,,14.09377849,135.516,,149.6097785,,,140.4,139.6097785,140.4,2.141,,-0.562835836,3.17E-05,
12.173,140.4,0.8,49.3,,,,,2.158,0.8,167.4,49.3,,137.3116559,,,14.07221798,135.516,,149.588218,,,140.4,139.588218,140.4,2.158,,-0.578192322,3.34E-05,
12.193,140.4,0.798,49.3,,,,,2.178,0.798,167.4,49.3,,137.4938988,,,14.07411713,135.58928,,149.6633971,,,140.4,139.6633971,140.4,2.178,,-0.524645922,2.75E-05,
12.213,140.4,0.798,49.1,,,,,2.198,0.798,167.4,49.1,,137.4397941,,,14.03089449,135.58928,,149.6201745,,,140.4,139.6201745,140.4,2.198,,-0.555431277,3.09E-05,
12.234,140.4,0.8,49.1,,,,,2.219,0.8,167.4,49.1,,137.2571923,,,14.02903096,135.516,,149.545031,,,140.4,139.545031,140.4,2.219,,-0.608952306,3.71E-05,
12.254,140.4,0.798,49.1,,,,,2.239,0.798,167.4,49.1,,137.4397941,,,14.03089449,135.58928,,149.6201745,,,140.4,139.6201745,140.4,2.239,,-0.555431277,3.09E-05,
12.274,140.4,0.798,49,,,,,2.259,0.798,167.4,49,,137.4126888,,,14.0092501,135.58928,,149.5985301,,,140.4,139.5985301,140.4,2.259,,-0.570847505,3.26E-05,
12.296,140.4,0.796,49,,,,,2.281,0.796,167.4,49,,137.5943366,,,14.01111702,135.66256,,149.673677,,,140.4,139.673677,140.4,2.281,,-0.517324058,2.68E-05,
12.312,140.4,0.796,48.9,,,,,2.297,0.796,167.4,48.9,,137.567375,,,13.98943273,135.66256,,149.6519927,,,140.4,139.6519927,140.4,2.297,,-0.532768713,2.84E-05,
12.333,140.4,0.795,48.8,,,,,2.318,0.795,167.4,48.8,,137.6309568,,,13.96864987,135.6992,,149.6678499,,,140.4,139.6678499,140.4,2.318,,-0.521474448,2.72E-05,
12.351,140.4,0.793,48.7,,,,,2.336,0.793,167.4,48.7,,137.7845032,,,13.94875751,135.77248,,149.7212375,,,140.4,139.7212375,140.4,2.336,,-0.483449066,2.34E-05,
12.37,140.4,0.795,48.6,,,,,2.355,0.795,167.4,48.6,,137.5770359,,,13.92515265,135.6992,,149.6243526,,,140.4,139.6243526,140.4,2.355,,-0.552455378,3.05E-05,
12.391,140.4,0.793,48.5,,,,,2.376,0.793,167.4,48.5,,137.7308692,,,13.90518021,135.77248,,149.6776602,,,140.4,139.6776602,140.4,2.376,,-0.514487033,2.65E-05,
12.418,140.4,0.792,48.5,,,,,2.403,0.792,167.4,48.5,,137.8208694,,,13.90609284,135.80912,,149.7152128,,,140.4,139.7152128,140.4,2.403,,-0.487740143,2.38E-05,
12.435,140.4,0.791,48.4,,,,,2.42,0.791,167.4,48.4,,137.8838966,,,13.88517084,135.84576,,149.7309308,,,140.4,139.7309308,140.4,2.42,,-0.476544985,2.27E-05,
12.455,140.4,0.79,48.2,,,,,2.44,0.79,167.4,48.2,,137.9201126,,,13.84232048,135.8824,,149.7247205,,,140.4,139.7247205,140.4,2.44,,-0.480968317,2.31E-05,
12.475,140.4,0.789,48,,,,,2.46,0.789,167.4,48,,137.9562629,,,13.79935014,135.91904,,149.7183901,,,140.4,139.7183901,140.4,2.46,,-0.485477108,2.36E-05,
