time,length,pressure,force,time_contraction,pressure_contraction,length_contraction,force_contraction,time_extension,pressure_extension,length_extension,force_extension,estimated_contraction_length,estimated_extension_length,Estimated_Stretched_Length_Contraction,Estimated_Unstretched_Length_Contraction,Estimated_Stretched_Length_Extension,Estimated_Unstretched_Length_Extension,Estimated_Length_Contraction,Estimated_Length_Extension,real_length_contraction,Real_Estimated_Length_Contraction,real_length_extension,Real_Estimated_Length_Extension,real_length,time_elapsed,Error_Percentage_Contraction,Error_Percentage_Extension
10.015,155.2,0.428,46.5,0,0.428,182.2,46.5,,,,,156.1365855,,14.00638979,149.14608,,,163.1524698,,155.2,153.1524698,,,155.2,0,-1.319284932,
10.034,155.2,0.428,46.6,0.019,0.428,182.2,46.6,,,,,156.1418866,,14.03280917,149.14608,,,163.1788892,,155.2,153.1788892,,,155.2,0.019,-1.302262133,
10.059,155.2,0.432,46.6,0.044,0.432,182.2,46.6,,,,,156.0638883,,14.02131512,148.99952,,,163.0208351,,155.2,153.0208351,,,155.2,0.044,-1.404101083,
10.079,155.1,0.433,46.9,0.064,0.433,182.1,46.9,,,,,156.0604142,,14.09734779,148.96288,,,163.0602278,,155.1,153.0602278,,,155.1,0.064,-1.315133597,
10.099,155.1,0.435,47.5,0.084,0.435,182.1,47.5,,,,,156.0534973,,14.24877384,148.8896,,,163.1383738,,155.1,153.1383738,,,155.1,0.084,-1.264749298,
10.116,155.1,0.438,48.1,0.101,0.438,182.1,48.1,,,,,156.0266562,,14.3962469,148.77968,,,163.1759269,,155.1,153.1759269,,,155.1,0.101,-1.240537141,
10.137,155.1,0.44,48.6,0.122,0.44,182.1,48.6,,,,,156.0142094,,14.51992547,148.7064,,,163.2263255,,155.1,153.2263255,,,155.1,0.122,-1.208042897,
10.146,155,0.443,49.2,0.131,0.443,182,49.2,,,,,155.9870849,,14.66551814,148.59648,,,163.2619981,,155,153.2619981,,,155,0.131,-1.121291523,
10.176,154.8,0.445,49.6,0.161,0.445,181.8,49.6,,,,,155.9688877,,14.76199483,148.5232,,,163.2851948,,154.8,153.2851948,,,154.8,0.161,-0.978556312,
10.193,154.6,0.449,49.7,0.178,0.449,181.6,49.7,,,,,155.8918787,,14.77442671,148.37664,,,163.1510667,,154.6,153.1510667,,,154.6,0.178,-0.937214286,
10.218,154.4,0.45,49.8,0.203,0.45,181.4,49.8,,,,,155.8767032,,14.79673746,148.34,,,163.1367375,,154.4,153.1367375,,,154.4,0.203,-0.818175223,
10.232,154.2,0.456,49.5,0.217,0.456,181.2,49.5,,,,,155.730203,,14.70073823,148.12016,,,162.8208982,,154.2,152.8208982,,,154.2,0.217,-0.894359126,
10.257,153.9,0.46,49.2,0.242,0.46,180.9,49.2,,,,,155.6230368,,14.61196084,147.9736,,,162.5855608,,153.9,152.5855608,,,153.9,0.242,-0.854086525,
10.277,153.7,0.461,49.6,0.262,0.461,180.7,49.6,,,,,155.6252242,,14.71052632,147.93696,,,162.6474863,,153.7,152.6474863,,,153.7,0.262,-0.68478444,
10.297,153.4,0.465,49.5,0.282,0.465,180.4,49.5,,,,,155.5276906,,14.67292591,147.7904,,,162.4633259,,153.4,152.4633259,,,153.4,0.282,-0.610608925,
10.317,153.2,0.468,48.9,0.302,0.468,180.2,48.9,,,,,155.4190473,,14.512288,147.68048,,,162.192768,,153.2,152.192768,,,153.2,0.302,-0.657462142,
10.338,152.9,0.473,49.1,0.323,0.473,179.9,49.1,,,,,155.3119654,,14.54856618,147.49728,,,162.0458462,,152.9,152.0458462,,,152.9,0.323,-0.558635589,
10.357,152.7,0.475,49.5,0.342,0.475,179.7,49.5,,,,,155.2897496,,14.64338331,147.424,,,162.0673833,,152.7,152.0673833,,,152.7,0.342,-0.414287288,
10.378,152.5,0.478,49.3,0.363,0.478,179.5,49.3,,,,,155.2020686,,14.58473572,147.31408,,,161.8988157,,152.5,151.8988157,,,152.5,0.363,-0.394219202,
10.394,152.3,0.483,49.1,0.379,0.483,179.3,49.1,,,,,155.0613937,,14.52103882,147.13088,,,161.6519188,,152.3,151.6519188,,,152.3,0.379,-0.425529337,
10.407,152,0.489,49.3,0.392,0.489,179,49.3,,,,,154.918581,,14.55488635,146.91104,,,161.4659264,,152,151.4659264,,,152,0.392,-0.351364241,
10.434,151.8,0.493,49.5,0.419,0.493,178.8,49.5,,,,,154.8258238,,14.59392006,146.76448,,,161.3584001,,151.8,151.3584001,,,151.8,0.419,-0.290909053,
10.443,151.6,0.495,49.7,0.428,0.495,178.6,49.7,,,,,154.7861771,,14.63803117,146.6912,,,161.3292312,,151.6,151.3292312,,,151.6,0.428,-0.178607406,
10.476,151.3,0.5,49.5,0.461,0.5,178.3,49.5,,,,,154.6325957,,14.57600618,146.508,,,161.0840062,,151.3,151.0840062,,,151.3,0.461,-0.142758638,
10.498,151.1,0.506,49.5,0.483,0.506,178.1,49.5,,,,,154.4610871,,14.56125259,146.28816,,,160.8494126,,151.1,150.8494126,,,151.1,0.483,-0.165842097,
10.518,150.8,0.508,49.8,0.503,0.508,177.8,49.8,,,,,154.4264249,,14.62959128,146.21488,,,160.8444713,,150.8,150.8444713,,,150.8,0.503,0.029490239,
10.539,150.6,0.511,49.6,0.524,0.511,177.6,49.6,,,,,154.3219826,,14.57371498,146.10496,,,160.678675,,150.6,150.678675,,,150.6,0.524,0.052241021,
10.554,150.3,0.517,49.2,0.539,0.517,177.3,49.2,,,,,154.1073153,,14.46297047,145.88512,,,160.3480905,,150.3,150.3480905,,,150.3,0.539,0.031996322,
10.573,150.1,0.521,49.3,0.558,0.521,177.1,49.3,,,,,153.9909892,,14.47854827,145.73856,,,160.2171083,,150.1,150.2171083,,,150.1,0.558,0.078020165,
10.589,149.9,0.526,49.8,0.574,0.526,176.9,49.8,,,,,153.874876,,14.58819212,145.55536,,,160.1435521,,149.9,150.1435521,,,149.9,0.574,0.162476397,
10.616,149.6,0.53,49.5,0.601,0.53,176.6,49.5,,,,,153.7188191,,14.50790876,145.4088,,,159.9167088,,149.6,149.9167088,,,149.6,0.601,0.211703714,
10.638,149.4,0.536,49.5,0.623,0.536,176.4,49.5,,,,,153.5187278,,14.49601801,145.18896,,,159.684978,,149.4,149.684978,,,149.4,0.623,0.190748335,
10.655,149.2,0.539,50,0.64,0.539,176.2,50,,,,,153.4624325,,14.60897651,145.07904,,,159.6880165,,149.2,149.6880165,,,149.2,0.64,0.327088817,
10.679,148.9,0.544,49.8,0.664,0.544,175.9,49.8,,,,,153.2708873,,14.55203284,144.89584,,,159.4478728,,148.9,149.4478728,,,148.9,0.664,0.367946836,
10.699,148.7,0.552,49.5,0.684,0.552,175.7,49.5,,,,,152.9555844,,14.46719911,144.60272,,,159.0699191,,148.7,149.0699191,,,148.7,0.684,0.248768734,
10.718,148.4,0.556,49.9,0.703,0.556,175.4,49.9,,,,,152.8478044,,14.55429162,144.45616,,,159.0104516,,148.4,149.0104516,,,148.4,0.703,0.411355538,
10.739,148.2,0.559,49.9,0.724,0.559,175.2,49.9,,,,,152.7357808,,14.54932831,144.34624,,,158.8955683,,148.2,148.8955683,,,148.2,0.724,0.469344342,
10.756,148,0.566,49.3,0.741,0.566,175,49.3,,,,,152.4055233,,14.3989717,144.08976,,,158.4887317,,148,148.4887317,,,148,0.741,0.330224123,
10.769,147.8,0.571,49.4,0.754,0.571,174.8,49.4,,,,,152.2183279,,14.41537945,143.90656,,,158.3219394,,147.8,148.3219394,,,147.8,0.754,0.353139004,
10.796,147.5,0.575,49.8,0.781,0.575,174.5,49.8,,,,,152.1004427,,14.50242216,143.76,,,158.2624222,,147.5,148.2624222,,,147.5,0.781,0.516896377,
10.812,147.3,0.581,49.5,0.797,0.581,174.3,49.5,,,,,151.8204868,,14.42591082,143.54016,,,157.9660708,,147.3,147.9660708,,,147.3,0.797,0.45218657,
10.831,147.1,0.586,49.2,0.816,0.586,174.1,49.2,,,,,151.5748967,,14.35159733,143.35696,,,157.7085573,,147.1,147.7085573,,,147.1,0.816,0.413703145,
10.857,146.9,0.591,49.4,0.842,0.591,173.9,49.4,,,,,151.3816476,,14.39223905,143.17376,,,157.565999,,146.9,147.565999,,,146.9,0.842,0.453368989,
10.879,146.7,0.594,49.7,0.864,0.594,173.7,49.7,,,,,151.2851668,,14.45747328,143.06384,,,157.5213133,,146.7,147.5213133,,,146.7,0.864,0.559859087,
10.898,146.5,0.599,49.5,0.883,0.599,173.5,49.5,,,,,151.0379495,,14.4075472,142.88064,,,157.2881872,,146.5,147.2881872,,,146.5,0.883,0.538011742,
10.915,146.3,0.604,49.3,0.9,0.604,173.3,49.3,,,,,150.7847972,,14.35837253,142.69744,,,157.0558125,,146.3,147.0558125,,,146.3,0.9,0.516618269,
10.936,146.1,0.608,49.3,0.921,0.608,173.1,49.3,,,,,150.5981288,,14.35555991,142.55088,,,156.9064399,,146.1,146.9064399,,,146.1,0.921,0.551978034,
10.957,145.9,0.614,49.2,0.942,0.614,172.9,49.2,,,,,150.2992531,,14.3294927,142.33104,,,156.6605327,,145.9,146.6605327,,,145.9,0.942,0.521269845,
10.977,145.7,0.62,49.3,0.962,0.62,172.7,49.3,,,,,150.0190176,,14.34881865,142.1112,,,156.4600186,,145.7,146.4600186,,,145.7,0.962,0.521632566,
10.998,145.5,0.622,49.6,0.983,0.622,172.5,49.6,,,,,149.9596776,,14.41454671,142.03792,,,156.4524667,,145.5,146.4524667,,,145.5,0.983,0.654616297,
11.005,145.3,0.626,49.3,0.99,0.626,172.3,49.3,,,,,149.7185441,,14.34640799,141.89136,,,156.237768,,145.3,146.237768,,,145.3,0.99,0.645401232,
11.038,145.2,0.633,48.9,1.023,0.633,172.2,48.9,,,,,149.3026288,,14.25618403,141.63488,,,155.891064,,145.2,145.891064,,,145.2,1.023,0.475939414,
11.059,145,0.637,49.3,1.044,0.637,172,49.3,,,,,149.148382,,14.34366286,141.48832,,,155.8319829,,145,145.8319829,,,145,1.044,0.57378128,
11.076,144.8,0.642,49.5,1.061,0.642,171.8,49.5,,,,,148.9097667,,14.38683165,141.30512,,,155.6919516,,144.8,145.6919516,,,144.8,1.061,0.615988707,
11.093,144.7,0.648,49.1,1.078,0.648,171.7,49.1,,,,,148.5230736,,14.29955296,141.08528,,,155.384833,,144.7,145.384833,,,144.7,1.078,0.473277788,
11.117,144.5,0.654,49.3,1.102,0.654,171.5,49.3,,,,,148.216947,,14.34371661,140.86544,,,155.2091566,,144.5,145.2091566,,,144.5,1.102,0.49076582,
11.136,144.3,0.658,49.5,1.121,0.658,171.3,49.5,,,,,148.0195236,,14.38762196,140.71888,,,155.106502,,144.3,145.106502,,,144.3,1.121,0.558906421,
11.156,144.2,0.663,49.4,1.141,0.663,171.2,49.4,,,,,147.7142065,,14.36735895,140.53568,,,154.903039,,144.2,144.903039,,,144.2,1.141,0.48754435,
11.178,144,0.669,49.3,1.163,0.669,171,49.3,,,,,147.342911,,14.3481368,140.31584,,,154.6639768,,144,144.6639768,,,144,1.163,0.461094998,
11.198,143.9,0.673,49.4,1.183,0.673,170.9,49.4,,,,,147.1176949,,14.37132313,140.16928,,,154.5406031,,143.9,144.5406031,,,143.9,1.183,0.445172432,
11.212,143.7,0.676,49.5,1.197,0.676,170.7,49.5,,,,,146.9508446,,14.39411363,140.05936,,,154.4534736,,143.7,144.4534736,,,143.7,1.197,0.524337945,
11.228,143.6,0.68,49.4,1.213,0.68,170.6,49.4,,,,,146.6867288,,14.37519486,139.9128,,,154.2879949,,143.6,144.2879949,,,143.6,1.213,0.479105056,
11.255,143.4,0.685,49.1,1.24,0.685,170.4,49.1,,,,,146.320784,,14.31515832,139.7296,,,154.0447583,,143.4,144.0447583,,,143.4,1.24,0.449622258,
11.276,143.3,0.69,49.2,1.261,0.69,170.3,49.2,,,,,146.0167913,,14.34025012,139.5464,,,153.8866501,,143.3,143.8866501,,,143.3,1.261,0.409385989,
11.294,143.2,0.693,49.4,1.279,0.693,170.2,49.4,,,,,145.8565079,,14.38479415,139.43648,,,153.8212742,,143.2,143.8212742,,,143.2,1.279,0.433850664,
11.308,143.1,0.699,49.5,1.293,0.699,170.1,49.5,,,,,145.47797,,14.41113192,139.21664,,,153.6277719,,143.1,143.6277719,,,143.1,1.293,0.368813362,
11.337,142.9,0.701,49.7,1.322,0.701,169.9,49.7,,,,,145.3801395,,14.4546535,139.14336,,,153.5980135,,142.9,143.5980135,,,142.9,1.322,0.488462914,
11.357,142.8,0.706,49.5,1.342,0.706,169.8,49.5,,,,,145.0050752,,14.41826938,138.96016,,,153.3784294,,142.8,143.3784294,,,142.8,1.342,0.405062592,
11.374,142.7,0.712,49.3,1.359,0.712,169.7,49.3,,,,,144.5527686,,14.38384967,138.74032,,,153.1241697,,142.7,143.1241697,,,142.7,1.359,0.297245738,
11.395,142.6,0.715,49.5,1.38,0.715,169.6,49.5,,,,,144.3797758,,14.42879649,138.6304,,,153.0591965,,142.6,143.0591965,,,142.6,1.38,0.322017176,
11.415,142.5,0.72,49.5,1.4,0.72,169.5,49.5,,,,,144.0238758,,14.4353032,138.4472,,,152.8825032,,142.5,142.8825032,,,142.5,1.4,0.268423298,
11.434,142.4,0.723,49.6,1.419,0.723,169.4,49.6,,,,,143.8269077,,14.45985778,138.33728,,,152.7971378,,142.4,142.7971378,,,142.4,1.419,0.278888892,
11.452,142.3,0.726,49.7,1.437,0.726,169.3,49.7,,,,,143.6281033,,14.4844651,138.22736,,,152.7118251,,142.3,142.7118251,,,142.3,1.437,0.289406255,
11.472,142.2,0.729,49.6,1.457,0.729,169.2,49.6,,,,,143.3876566,,14.46852764,138.11744,,,152.5859676,,142.2,142.5859676,,,142.2,1.457,0.271425906,
11.498,142.1,0.735,49.5,1.483,0.735,169.1,49.5,,,,,142.9190727,,14.45765506,137.8976,,,152.3552551,,142.1,142.3552551,,,142.1,1.483,0.179630581,
11.516,142,0.739,49.5,1.501,0.739,169,49.5,,,,,142.614928,,14.46433497,137.75104,,,152.215375,,142,142.215375,,,142,1.501,0.151672513,
11.532,141.9,0.741,49.7,1.517,0.741,168.9,49.7,,,,,142.5028402,,14.5080203,137.67776,,,152.1857803,,141.9,142.1857803,,,141.9,1.517,0.201395559,
11.556,141.8,0.745,49.7,1.541,0.745,168.8,49.7,,,,,142.1931511,,14.51502331,137.5312,,,152.0462233,,141.8,142.0462233,,,141.8,1.541,0.173641259,
11.575,141.7,0.748,49.6,1.56,0.748,168.7,49.6,,,,,141.9369549,,14.50048395,137.42128,,,151.921764,,141.7,141.921764,,,141.7,1.56,0.156502437,
11.595,141.6,0.751,49.6,1.58,0.751,168.6,49.6,,,,,141.6994633,,14.50615707,137.31136,,,151.8175171,,141.6,141.8175171,,,141.6,1.58,0.153613753,
11.615,141.6,0.753,49.7,1.6,0.753,168.6,49.7,,,,,141.5614363,,14.52994337,137.23808,,,151.7680234,,141.6,141.7680234,,,141.6,1.6,0.11866057,
11.636,141.5,0.757,49.6,1.621,0.757,168.5,49.6,,,,,141.2174711,,14.51801806,137.09152,,,151.6095381,,141.5,141.6095381,,,141.5,1.621,0.077412056,
11.656,141.4,0.761,49.6,1.641,0.761,168.4,49.6,,,,,140.8909138,,14.52630712,136.94496,,,151.4712671,,141.4,141.4712671,,,141.4,1.641,0.050401078,
11.676,141.3,0.763,49.7,1.661,0.763,168.3,49.7,,,,,140.748377,,14.55031082,136.87168,,,151.4219908,,141.3,141.4219908,,,141.3,1.661,0.086334622,
11.698,141.3,0.765,49.6,1.683,0.765,168.3,49.6,,,,,140.5601411,,14.53490196,136.7984,,,151.333302,,141.3,141.333302,,,141.3,1.683,0.023568264,
11.703,141.2,0.768,49.5,1.688,0.768,168.2,49.5,,,,,140.2865674,,14.52186941,136.68848,,,151.2103494,,141.2,141.2103494,,,141.2,1.688,0.007329614,
11.735,141.2,0.77,49.7,1.72,0.77,168.2,49.7,,,,,140.1635413,,14.56570588,136.6152,,,151.1809059,,141.2,141.1809059,,,141.2,1.72,-0.013522745,
11.754,141.1,0.773,49.8,1.739,0.773,168.1,49.8,,,,,139.9319337,,14.59215518,136.50528,,,151.0974352,,141.1,141.0974352,,,141.1,1.739,-0.001817735,
11.776,141.1,0.775,49.8,1.761,0.775,168.1,49.8,,,,,139.7609785,,14.59680854,136.432,,,151.0288085,,141.1,141.0288085,,,141.1,1.761,-0.050454617,
11.789,141,0.776,49.8,1.774,0.776,168,49.8,,,,,139.6750973,,14.599164,136.39536,,,150.994524,,141,140.994524,,,141,1.774,-0.00388369,
11.816,141,0.779,49.8,1.801,0.779,168,49.8,,,,,139.4158338,,14.60634555,136.28544,,,150.8917856,,141,140.8917856,,,141,1.801,-0.076747835,
11.837,140.9,0.781,49.9,1.822,0.781,167.9,49.9,,,,,139.2652494,,14.63064619,136.21216,,,150.8428062,,140.9,140.8428062,,,140.9,1.822,-0.040591773,
11.853,140.9,0.783,49.9,1.838,0.783,167.9,49.9,,,,,139.0901167,,14.63557424,136.13888,,,150.7744542,,140.9,140.7744542,,,140.9,1.838,-0.089102738,
11.873,140.8,0.785,49.8,1.858,0.785,167.8,49.8,,,,,138.889979,,14.62122728,136.0656,,,150.6868273,,140.8,140.6868273,,,140.8,1.858,-0.080378349,
11.895,140.8,0.786,49.7,1.88,0.786,167.8,49.7,,,,,138.7773673,,14.60442231,136.02896,,,150.6333823,,140.8,140.6333823,,,140.8,1.88,-0.118336428,
11.915,140.7,0.789,49.7,1.9,0.789,167.7,49.7,,,,,138.5097005,,14.61222903,135.91904,,,150.531269,,140.7,140.531269,,,140.7,1.9,-0.119922509,
11.936,140.7,0.791,49.7,1.921,0.791,167.7,49.7,,,,,138.3298796,,14.61752967,135.84576,,,150.4632897,,140.7,140.4632897,,,140.7,1.921,-0.168237619,
11.956,140.6,0.791,49.7,1.941,0.791,167.6,49.7,,,,,138.3298796,,14.61752967,135.84576,,,150.4632897,,140.6,140.4632897,,,140.6,1.941,-0.09723352,
11.961,140.6,0.791,49.6,1.946,0.791,167.6,49.6,,,,,138.3054592,,14.59824127,135.84576,,,150.4440013,,140.6,140.4440013,,,140.6,1.946,-0.110952157,
11.996,140.6,0.793,49.4,1.981,0.793,167.6,49.4,,,,,138.0751582,,14.5650882,135.77248,,,150.3375682,,140.6,140.3375682,,,140.6,1.981,-0.186651351,
12.013,140.6,0.793,49.5,1.998,0.793,167.6,49.5,,,,,138.0997808,,14.58437823,135.77248,,,150.3568582,,140.6,140.3568582,,,140.6,1.998,-0.17293156,
12.034,140.5,0.795,49.6,2.019,0.795,167.5,49.6,,,,,137.9421903,,14.60913816,135.6992,,,150.3083382,,140.5,140.3083382,,,140.5,2.019,-0.136414123,
12.054,140.5,0.796,49.6,2.039,0.796,167.5,49.6,,,,,137.8506789,,14.61191049,135.66256,,,150.2744705,,140.5,140.2744705,,,140.5,2.039,-0.160519226,
12.075,140.5,0.797,49.5,2.06,0.797,167.5,49.5,,,,,137.7339808,,14.59549371,135.62592,,,150.2214137,,140.5,140.2214137,,,140.5,2.06,-0.198282059,
12.095,140.5,0.798,49.5,2.08,0.798,167.5,49.5,,,,,137.6418341,,14.59832068,135.58928,,,150.1876007,,140.5,140.1876007,,,140.5,2.08,-0.222348268,
12.115,140.4,0.798,49.5,2.1,0.798,167.4,49.5,,,,,137.6418341,,14.59832068,135.58928,,,150.1876007,,140.4,140.1876007,,,140.4,2.1,-0.151281565,
12.136,140.4,0.8,49.4,2.121,0.8,167.4,49.4,,,,,137.4315354,,14.58485541,135.516,,,150.1008554,,140.4,140.1008554,,,140.4,2.121,-0.213065944,
12.156,140.4,0.8,49.4,,,,,2.141,0.8,167.4,49.4,,137.3388346,,,14.58485541,135.516,,150.1008554,,,140.4,140.1008554,140.4,2.141,,-0.213065944
12.173,140.4,0.8,49.3,,,,,2.158,0.8,167.4,49.3,,137.3116559,,,14.56566136,135.516,,150.0816614,,,140.4,140.0816614,140.4,2.158,,-0.226736924
12.193,140.4,0.798,49.3,,,,,2.178,0.798,167.4,49.3,,137.4938988,,,14.55988512,135.58928,,150.1491651,,,140.4,140.1491651,140.4,2.178,,-0.178657323
12.213,140.4,0.798,49.1,,,,,2.198,0.798,167.4,49.1,,137.4397941,,,14.52138104,135.58928,,150.110661,,,140.4,140.110661,140.4,2.198,,-0.20608188
12.234,140.4,0.8,49.1,,,,,2.219,0.8,167.4,49.1,,137.2571923,,,14.5272218,135.516,,150.0432218,,,140.4,140.0432218,140.4,2.219,,-0.254115527
12.254,140.4,0.798,49.1,,,,,2.239,0.798,167.4,49.1,,137.4397941,,,14.52138104,135.58928,,150.110661,,,140.4,140.110661,140.4,2.239,,-0.20608188
12.274,140.4,0.798,49,,,,,2.259,0.798,167.4,49,,137.4126888,,,14.50210319,135.58928,,150.0913832,,,140.4,140.0913832,140.4,2.259,,-0.219812545
12.296,140.4,0.796,49,,,,,2.281,0.796,167.4,49,,137.5943366,,,14.49630705,135.66256,,150.1588671,,,140.4,140.1588671,140.4,2.281,,-0.171747113
12.312,140.4,0.796,48.9,,,,,2.297,0.796,167.4,48.9,,137.567375,,,14.47697965,135.66256,,150.1395397,,,140.4,140.1395397,140.4,2.297,,-0.185513068
12.333,140.4,0.795,48.8,,,,,2.318,0.795,167.4,48.8,,137.6309568,,,14.4547334,135.6992,,150.1539334,,,140.4,140.1539334,140.4,2.318,,-0.175261109
12.351,140.4,0.793,48.7,,,,,2.336,0.793,167.4,48.7,,137.7845032,,,14.42957741,135.77248,,150.2020574,,,140.4,140.2020574,140.4,2.336,,-0.140984748
12.37,140.4,0.795,48.6,,,,,2.355,0.795,167.4,48.6,,137.5770359,,,14.41595953,135.6992,,150.1151595,,,140.4,140.1151595,140.4,2.355,,-0.20287783
12.391,140.4,0.793,48.5,,,,,2.376,0.793,167.4,48.5,,137.7308692,,,14.39070408,135.77248,,150.1631841,,,140.4,140.1631841,140.4,2.376,,-0.168672304
12.418,140.4,0.792,48.5,,,,,2.403,0.792,167.4,48.5,,137.8208694,,,14.38781168,135.80912,,150.1969317,,,140.4,140.1969317,140.4,2.403,,-0.144635552
12.435,140.4,0.791,48.4,,,,,2.42,0.791,167.4,48.4,,137.8838966,,,14.36544325,135.84576,,150.2112033,,,140.4,140.2112033,140.4,2.42,,-0.134470619
12.455,140.4,0.79,48.2,,,,,2.44,0.79,167.4,48.2,,137.9201126,,,14.3234976,135.8824,,150.2058976,,,140.4,140.2058976,140.4,2.44,,-0.138249572
12.475,140.4,0.789,48,,,,,2.46,0.789,167.4,48,,137.9562629,,,14.28143588,135.91904,,150.2004759,,,140.4,140.2004759,140.4,2.46,,-0.1421112
12.496,140.4,0.787,47.9,,,,,2.481,0.787,167.4,47.9,,138.1081124,,,14.25601383,135.99232,,150.2483338,,,140.4,140.2483338,140.4,2.481,,-0.108024336
12.513,140.4,0.786,47.8,,,,,2.498,0.786,167.4,47.8,,138.1705033,,,14.23345734,136.02896,,150.2624173,,,140.4,140.2624173,140.4,2.498,,-0.097993346
12.533,140.4,0.784,47.6,,,,,2.518,0.784,167.4,47.6,,138.2948726,,,14.18825115,136.10224,,150.2904911,,,140.4,140.2904911,140.4,2.518,,-0.077997758
12.554,140.4,0.781,47.3,,,,,2.539,0.781,167.4,47.3,,138.4803974,,,14.12020793,136.21216,,150.3323679,,,140.4,140.3323679,140.4,2.539,,-0.048170989
12.574,140.4,0.779,47.1,,,,,2.559,0.779,167.4,47.1,,138.6033963,,,14.07468915,136.28544,,150.3601291,,,140.4,140.3601291,140.4,2.559,,-0.028398044
12.595,140.4,0.778,46.8,,,,,2.58,0.778,167.4,46.8,,138.612524,,,14.01191701,136.32208,,150.333997,,,140.4,140.333997,140.4,2.58,,-0.047010678
12.615,140.4,0.774,46.6,,,,,2.6,0.774,167.4,46.6,,138.9085073,,,13.96034053,136.46864,,150.4289805,,,140.4,140.4289805,140.4,2.6,,0.020641401
12.631,140.4,0.773,46.3,,,,,2.616,0.773,167.4,46.3,,138.917485,,,13.89706463,136.50528,,150.4023446,,,140.4,140.4023446,140.4,2.616,,0.001669961
12.651,140.5,0.769,46.1,,,,,2.636,0.769,167.5,46.1,,139.2102247,,,13.84519807,136.65184,,150.4970381,,,140.5,140.4970381,140.5,2.636,,-0.002108138
