time,length,pressure,force
10.003,189.70,0.214,45.20
10.019,189.70,0.216,45.30
10.031,189.70,0.216,45.50
10.04,189.70,0.217,45.60
10.055,189.70,0.217,45.70
10.067,189.70,0.218,45.90
10.079,189.70,0.219,46.00
10.093,189.70,0.22,46.20
10.106,189.70,0.223,46.50
10.116,189.70,0.224,47.00
10.127,189.70,0.227,47.50
10.139,189.70,0.229,48.10
10.152,189.60,0.231,48.80
10.163,189.60,0.234,49.40
10.175,189.60,0.238,49.90
10.194,189.40,0.24,50.40
10.212,189.30,0.244,50.80
10.236,189.00,0.246,51.10
10.256,188.70,0.247,51.00
10.276,188.40,0.252,50.60
10.292,188.10,0.256,50.20
10.312,187.80,0.258,50.10
10.334,187.60,0.262,49.90
10.354,187.40,0.267,49.70
10.375,187.20,0.273,49.90
10.396,187.10,0.275,50.30
10.416,186.90,0.279,50.70
10.435,186.70,0.284,50.70
10.453,186.50,0.288,50.80
10.472,186.20,0.293,51.00
10.494,186.00,0.296,51.00
10.513,185.70,0.3,50.90
10.535,185.40,0.305,50.40
10.555,185.30,0.308,50.10
10.571,185.10,0.313,50.20
10.592,185.00,0.318,50.60
10.612,184.80,0.322,51.00
10.633,184.60,0.328,51.00
10.653,184.40,0.332,51.10
10.673,184.20,0.337,51.20
10.695,184.00,0.341,51.00
10.714,183.80,0.346,50.90
10.736,183.60,0.352,50.90
10.752,183.40,0.355,51.00
10.77,183.30,0.36,50.80
10.792,183.10,0.366,50.80
10.813,182.90,0.371,50.90
10.833,182.80,0.376,51.10
10.854,182.60,0.38,51.00
10.874,182.50,0.385,51.00
10.894,182.30,0.391,51.00
10.912,182.20,0.395,51.10
10.932,182.00,0.4,51.20
10.952,181.90,0.404,51.20
10.973,181.80,0.41,51.10
10.992,181.60,0.417,51.20
11.014,181.50,0.421,51.40
11.033,181.30,0.426,51.40
11.054,181.20,0.429,51.20
11.071,181.10,0.434,51.10
11.089,181.00,0.439,51.10
11.111,180.90,0.444,51.20
11.134,180.80,0.45,51.40
11.153,180.70,0.455,51.60
11.173,180.60,0.457,51.70
11.194,180.50,0.464,51.60
11.211,180.30,0.467,51.40
11.234,180.20,0.473,51.20
11.251,180.10,0.476,51.10
11.271,180.10,0.481,51.10
11.291,180.00,0.486,51.20
11.312,180.00,0.489,51.50
11.333,179.90,0.494,51.80
11.354,179.80,0.499,51.90
11.374,179.70,0.503,51.80
11.394,179.60,0.508,51.70
11.412,179.50,0.511,51.40
11.432,179.40,0.514,51.20
11.451,179.30,0.519,51.00
11.472,179.30,0.521,50.90
11.491,179.30,0.525,51.00
11.512,179.20,0.53,51.30
11.533,179.20,0.533,51.40
11.554,179.10,0.536,51.40
11.566,179.00,0.538,51.20
11.586,179.00,0.542,51.10
11.61,178.90,0.545,51.10
11.632,178.90,0.548,51.10
11.653,178.90,0.55,51.20
11.671,178.80,0.554,51.30
11.69,178.80,0.556,51.30
11.708,178.80,0.559,51.30
11.732,178.70,0.561,51.30
11.751,178.70,0.563,51.30
11.772,178.70,0.566,51.30
11.792,178.60,0.567,51.40
11.81,178.60,0.57,51.40
11.832,178.60,0.571,51.40
11.849,178.60,0.572,51.40
11.869,178.50,0.574,51.40
11.889,178.50,0.575,51.40
11.91,178.50,0.577,51.30
11.931,178.50,0.578,51.30
11.953,178.50,0.578,51.30
11.972,178.50,0.581,51.30
11.987,178.40,0.581,51.30
12.012,178.40,0.581,51.20
12.029,178.40,0.582,51.20
12.05,178.40,0.582,51.20
12.07,178.40,0.583,51.10
12.086,178.40,0.583,51.10
12.111,178.40,0.583,51.10
12.131,178.40,0.585,51.10
12.152,178.40,0.583,51.10
12.168,178.40,0.583,51.10
12.189,178.40,0.583,51.10
12.21,178.40,0.585,51.10
12.23,178.40,0.585,51.10
12.251,178.40,0.583,51.10
12.27,178.40,0.583,51.10
12.291,178.40,0.583,51.10
12.308,178.40,0.583,51.10
12.332,178.40,0.583,51.00
12.348,178.40,0.583,51.00
12.369,178.40,0.583,51.00
12.39,178.40,0.583,51.00
12.409,178.40,0.582,50.90
12.431,178.40,0.582,50.90
12.451,178.40,0.581,50.90
12.471,178.40,0.581,50.80
12.487,178.40,0.58,50.80
12.508,178.40,0.578,50.80
12.529,178.40,0.578,50.70
12.549,178.40,0.577,50.60
12.569,178.40,0.576,50.50
12.59,178.40,0.575,50.50
12.611,178.40,0.574,50.30
12.631,178.40,0.571,50.20
12.648,178.40,0.569,50.10
12.668,178.40,0.567,50.00
12.689,178.40,0.566,49.80
12.71,178.40,0.564,49.70
12.732,178.40,0.563,49.50
12.751,178.40,0.56,49.40
12.771,178.40,0.558,49.30
12.79,178.40,0.556,49.10
12.805,178.40,0.553,49.00
12.829,178.40,0.55,48.80
12.849,178.40,0.547,48.60
12.87,178.40,0.543,48.30
12.886,178.40,0.539,48.00
12.91,178.40,0.536,47.70
12.93,178.40,0.531,47.40
12.951,178.40,0.526,47.20
12.971,178.40,0.523,46.80
12.989,178.40,0.521,46.60
13.009,178.50,0.515,46.40
13.03,178.50,0.51,46.30
13.051,178.60,0.505,46.20
13.07,178.60,0.503,46.10
13.09,178.60,0.497,45.90
13.11,178.70,0.492,45.80
13.131,178.80,0.488,45.60
13.148,178.80,0.483,45.50
13.165,178.90,0.478,45.50
13.182,179.00,0.473,45.60
13.207,179.10,0.47,45.70
13.229,179.20,0.465,45.70
13.247,179.30,0.46,45.80
13.27,179.40,0.454,45.70
13.288,179.40,0.45,45.50
13.307,179.50,0.445,45.30
13.328,179.60,0.439,45.20
13.348,179.70,0.433,45.20
13.368,179.90,0.429,45.10
13.385,180.00,0.423,45.20
13.409,180.10,0.42,45.20
13.43,180.20,0.415,45.10
13.45,180.30,0.409,44.90
13.466,180.40,0.405,44.80
13.488,180.60,0.399,44.90
13.508,180.70,0.394,44.90
13.529,180.90,0.389,45.00
13.549,181.00,0.385,45.10
13.569,181.10,0.378,45.10
13.586,181.20,0.374,45.00
13.607,181.30,0.37,44.80
13.624,181.40,0.366,44.60
13.648,181.60,0.361,44.50
13.667,181.70,0.356,44.30
13.688,181.90,0.352,44.40
13.708,182.10,0.346,44.50
13.729,182.30,0.343,44.70
13.746,182.40,0.338,44.70
13.766,182.60,0.333,44.70
13.786,182.70,0.328,44.50
13.807,182.80,0.324,44.30
13.828,183.00,0.319,44.10
13.848,183.20,0.316,44.10
13.868,183.40,0.311,44.10
13.888,183.60,0.307,44.10
13.909,183.80,0.304,44.10
13.926,184.00,0.299,44.20
13.946,184.10,0.295,44.20
13.967,184.30,0.291,44.20
13.987,184.50,0.286,44.20
14.008,184.60,0.284,44.10
14.029,184.80,0.279,44.10
14.048,185.00,0.277,44.00
14.065,185.20,0.273,44.00
14.086,185.40,0.269,43.90
14.106,185.60,0.266,43.90
14.128,185.90,0.262,44.10
14.147,186.10,0.26,44.30
14.168,186.30,0.257,44.50
14.184,186.40,0.253,44.60
14.205,186.60,0.25,44.50
14.229,186.70,0.247,44.40
14.246,186.90,0.245,44.30
14.265,187.10,0.242,44.20
14.284,187.20,0.24,44.20
14.307,187.40,0.238,44.30
14.327,187.60,0.235,44.40
14.347,187.80,0.233,44.40
14.367,187.90,0.23,44.40
14.382,188.10,0.229,44.40
14.404,188.20,0.227,44.40
