time,length,pressure,force,time_contraction,pressure_contraction,length_contraction,force_contraction,time_extension,pressure_extension,length_extension,force_extension,estimated_contraction_length,estimated_extension_length
10.038,159.8,0.214,46.4,0.0,0.214,192.8,46.4,,,,,158.8078805222539,
10.061,159.8,0.217,46.9,0.022999999999999687,0.217,192.8,46.9,,,,,158.79370435518078,
10.081,159.8,0.219,47.3,0.04299999999999926,0.219,192.8,47.3,,,,,158.78696011253882,
10.101,159.7,0.223,47.8,0.06300000000000061,0.223,192.7,47.8,,,,,158.760128492286,
10.121,159.6,0.224,48.5,0.08300000000000018,0.224,192.6,48.5,,,,,158.7785633546595,
10.142,159.4,0.228,49.0,0.1039999999999992,0.228,192.4,49.0,,,,,158.75121880566795,
10.155,159.2,0.23,49.1,0.1169999999999991,0.23,192.2,49.1,,,,,158.73049915948135,
10.179,158.9,0.233,49.1,0.14100000000000001,0.233,191.9,49.1,,,,,158.69201009024275,
10.195,158.7,0.236,48.7,0.15700000000000003,0.236,191.7,48.7,,,,,158.63421994168,
10.221,158.4,0.238,48.5,0.18299999999999983,0.238,191.4,48.5,,,,,158.59808961874012,
10.238,158.1,0.242,48.5,0.1999999999999993,0.242,191.1,48.5,,,,,158.5431548156516,
10.261,157.9,0.245,48.1,0.22299999999999898,0.245,190.9,48.1,,,,,158.4818813072839,
10.281,157.7,0.25,48.5,0.24300000000000033,0.25,190.7,48.5,,,,,158.42879070475448,
10.297,157.5,0.253,48.1,0.25900000000000034,0.253,190.5,48.1,,,,,158.36469336190194,
10.319,157.3,0.257,48.8,0.2810000000000006,0.257,190.3,48.8,,,,,158.3387796023082,
10.334,157.1,0.262,48.7,0.2959999999999994,0.262,190.1,48.7,,,,,158.25616995704684,
10.356,156.8,0.263,49.1,0.3179999999999996,0.263,189.8,49.1,,,,,158.26076981793017,
10.38,156.6,0.267,48.9,0.3420000000000005,0.267,189.6,48.9,,,,,158.18655611043738,
10.398,156.4,0.269,49.1,0.35999999999999943,0.269,189.4,49.1,,,,,158.16440912784736,
10.416,156.1,0.274,48.8,0.3780000000000001,0.274,189.1,48.8,,,,,158.0656346211897,
10.44,155.9,0.28,48.9,0.40199999999999925,0.28,188.9,48.9,,,,,157.96817667956876,
10.455,155.7,0.286,48.8,0.4169999999999998,0.286,188.7,48.8,,,,,157.85653381961322,
10.478,155.5,0.29,48.9,0.4399999999999995,0.29,188.5,48.9,,,,,157.7894244177522,
10.49,155.3,0.291,48.9,0.45199999999999996,0.291,188.3,48.9,,,,,157.77103419623805,
10.517,155.1,0.295,49.1,0.4789999999999992,0.295,188.1,49.1,,,,,157.70789376324728,
10.533,154.9,0.3,49.2,0.4949999999999992,0.3,187.9,49.2,,,,,157.61861520097003,
10.556,154.6,0.305,49.5,0.5179999999999989,0.305,187.6,49.5,,,,,157.53889977281403,
10.58,154.4,0.31,49.6,0.5419999999999998,0.31,187.4,49.6,,,,,157.4454829441012,
10.598,154.2,0.313,49.3,0.5600000000000005,0.313,187.2,49.3,,,,,157.36677342741584,
10.614,154.0,0.321,49.1,0.5760000000000005,0.321,187.0,49.1,,,,,157.1880807905053,
10.638,153.9,0.326,49.2,0.5999999999999996,0.326,186.9,49.2,,,,,157.08709808425405,
10.65,153.7,0.329,49.6,0.6120000000000001,0.329,186.7,49.6,,,,,157.04687198602147,
10.678,153.5,0.33,49.5,0.6400000000000006,0.33,186.5,49.5,,,,,157.0186429910427,
10.698,153.3,0.335,49.9,0.6600000000000001,0.335,186.3,49.9,,,,,156.9331862431273,
10.716,153.1,0.343,49.9,0.677999999999999,0.343,186.1,49.9,,,,,156.75117534650474,
10.731,152.9,0.348,50.0,0.6929999999999996,0.348,185.9,50.0,,,,,156.64101578861516,
10.759,152.7,0.352,49.9,0.7210000000000001,0.352,185.7,49.9,,,,,156.53924997090667,
10.772,152.5,0.357,49.7,0.734,0.357,185.5,49.7,,,,,156.40463348986495,
10.798,152.4,0.362,49.7,0.7599999999999998,0.362,185.4,49.7,,,,,156.2810988572741,
10.818,152.2,0.366,49.6,0.7799999999999994,0.366,185.2,49.6,,,,,156.17362320042852,
10.831,152.1,0.37,49.8,0.7929999999999993,0.37,185.1,49.8,,,,,156.0856097235101,
10.858,152.0,0.376,50.0,0.8200000000000003,0.376,185.0,50.0,,,,,155.9441808881336,
10.88,151.8,0.383,50.2,0.8420000000000005,0.383,184.8,50.2,,,,,155.77304612197693,
10.892,151.7,0.387,50.5,0.8539999999999992,0.387,184.7,50.5,,,,,155.68706619652474,
10.918,151.5,0.391,50.7,0.879999999999999,0.391,184.5,50.7,,,,,155.59260609135197,
10.936,151.3,0.396,50.4,0.8979999999999997,0.396,184.3,50.4,,,,,155.43152515493108,
10.955,151.1,0.402,50.2,0.9169999999999998,0.402,184.1,50.2,,,,,155.24661677840774,
10.976,150.9,0.407,50.0,0.9380000000000006,0.407,183.9,50.0,,,,,155.0870554269875,
10.994,150.8,0.412,50.0,0.9559999999999995,0.412,183.8,50.0,,,,,154.9403821885169,
11.018,150.7,0.416,49.9,0.9800000000000004,0.416,183.7,49.9,,,,,154.81349251471815,
11.037,150.6,0.418,49.9,0.9990000000000006,0.418,183.6,49.9,,,,,154.75338265022205,
11.059,150.5,0.424,50.1,1.020999999999999,0.424,183.5,50.1,,,,,154.58682612383376,
11.08,150.4,0.432,50.6,1.0419999999999998,0.432,183.4,50.6,,,,,154.37921952352772,
11.1,150.3,0.442,50.7,1.0619999999999994,0.442,183.3,50.7,,,,,154.06954367442538,
11.102,150.2,0.445,50.8,1.064,0.445,183.2,50.8,,,,,153.98076138928013,
11.135,150.0,0.446,50.7,1.0969999999999995,0.446,183.0,50.7,,,,,153.93978789193767,
11.151,149.8,0.45,50.4,1.1129999999999995,0.45,182.8,50.4,,,,,153.78308581835378,
11.178,149.7,0.455,50.1,1.1400000000000006,0.455,182.7,50.1,,,,,153.5909295802968,
11.194,149.6,0.461,49.7,1.1560000000000006,0.461,182.6,49.7,,,,,153.3530775007402,
11.22,149.5,0.464,49.6,1.1820000000000004,0.464,182.5,49.6,,,,,153.24129505278987,
11.24,149.4,0.466,49.6,1.202,0.466,182.4,49.6,,,,,153.17208806970513,
11.26,149.4,0.475,49.7,1.2219999999999995,0.475,182.4,49.7,,,,,152.86494818219646,
11.277,149.3,0.481,50.0,1.238999999999999,0.481,182.3,50.0,,,,,152.67724002782043,
11.297,149.2,0.484,50.0,1.2590000000000003,0.484,182.2,50.0,,,,,152.56872990695246,
11.318,149.1,0.488,49.9,1.2799999999999994,0.488,182.1,49.9,,,,,152.41357589505213,
11.337,149.0,0.492,49.9,1.2989999999999995,0.492,182.0,49.9,,,,,152.26601459567917,
11.359,148.9,0.495,49.7,1.3209999999999997,0.495,181.9,49.7,,,,,152.13578450917583,
11.379,148.8,0.5,49.5,1.3409999999999993,0.5,181.8,49.5,,,,,151.9288882138256,
11.398,148.7,0.505,49.4,1.3599999999999994,0.505,181.7,49.4,,,,,151.7287584477727,
11.415,148.6,0.508,49.5,1.376999999999999,0.508,181.6,49.5,,,,,151.6227018552745,
11.436,148.6,0.512,49.6,1.3979999999999997,0.512,181.6,49.6,,,,,151.47695385019284,
11.453,148.5,0.516,49.5,1.4149999999999991,0.516,181.5,49.5,,,,,151.31052282376328,
11.477,148.4,0.521,49.5,1.439,0.521,181.4,49.5,,,,,151.11236777483114,
11.496,148.4,0.523,49.4,1.4580000000000002,0.523,181.4,49.4,,,,,151.02266042088712,
11.514,148.3,0.528,49.4,1.475999999999999,0.528,181.3,49.4,,,,,150.8211380379729,
11.538,148.2,0.53,49.5,1.5,0.53,181.2,49.5,,,,,150.74978964930816,
11.558,148.2,0.533,49.5,1.5199999999999996,0.533,181.2,49.5,,,,,150.62724483486377,
11.572,148.1,0.539,49.3,1.533999999999999,0.539,181.1,49.3,,,,,150.359471434306,
11.593,148.1,0.542,49.4,1.5549999999999997,0.542,181.1,49.4,,,,,150.24442184231773,
11.617,148.0,0.542,49.4,1.5790000000000006,0.542,181.0,49.4,,,,,150.24442184231773,
11.638,148.0,0.545,49.4,1.5999999999999996,0.545,181.0,49.4,,,,,150.11845209475905,
11.658,147.9,0.553,49.4,1.6199999999999992,0.553,180.9,49.4,,,,,149.77841280527576,
11.677,147.9,0.555,49.5,1.6389999999999993,0.555,180.9,49.5,,,,,149.70283309564584,
11.696,147.8,0.558,49.5,1.6579999999999995,0.558,180.8,49.5,,,,,149.57326561757625,
11.716,147.8,0.561,49.4,1.677999999999999,0.561,180.8,49.4,,,,,149.43238084283232,
11.729,147.8,0.563,49.3,1.690999999999999,0.563,180.8,49.3,,,,,149.33442662454243,
11.756,147.7,0.565,49.4,1.718,0.565,180.7,49.4,,,,,149.2571176092505,
11.777,147.7,0.569,49.4,1.738999999999999,0.569,180.7,49.4,,,,,149.08035620742868,
11.79,147.7,0.57,49.5,1.751999999999999,0.57,180.7,49.5,,,,,149.04656850894762,
11.817,147.6,0.572,49.6,1.779,0.572,180.6,49.6,,,,,148.96814827833734,
11.835,147.6,0.574,49.6,1.7970000000000006,0.574,180.6,49.6,,,,,148.878716024012,
11.85,147.6,0.575,49.6,1.8119999999999994,0.575,180.6,49.6,,,,,148.8338594435768,
11.868,147.6,0.577,49.5,1.83,0.577,180.6,49.5,,,,,148.73310176716654,
11.886,147.6,0.581,49.6,1.847999999999999,0.581,180.6,49.6,,,,,148.56275361515065,
11.916,147.5,0.582,49.8,1.8780000000000001,0.582,180.5,49.8,,,,,148.53895120869362,
11.935,147.5,0.582,49.8,1.8970000000000002,0.582,180.5,49.8,,,,,148.53895120869362,
11.954,147.5,0.585,49.8,1.9160000000000004,0.585,180.5,49.8,,,,,148.40196141763138,
11.975,147.5,0.586,49.8,1.9369999999999994,0.586,180.5,49.8,,,,,148.35611088291398,
11.997,147.5,0.587,49.8,1.9589999999999996,0.587,180.5,49.8,,,,,148.31016671268156,
12.017,147.4,0.588,49.8,1.9789999999999992,0.588,180.4,49.8,,,,,148.26412890693413,
12.041,147.4,0.589,49.8,2.003,0.589,180.4,49.8,,,,,148.21799746567171,
12.054,147.4,0.589,49.8,2.016,0.589,180.4,49.8,,,,,148.21799746567171,
12.072,147.4,0.591,49.7,2.033999999999999,0.591,180.4,49.7,,,,,148.1144363311411,
12.096,147.4,0.591,49.7,2.058,0.591,180.4,49.7,,,,,148.1144363311411,
12.117,147.4,0.591,49.7,2.0790000000000006,0.591,180.4,49.7,,,,,148.1144363311411,
12.136,147.4,0.591,49.7,2.097999999999999,0.591,180.4,49.7,,,,,148.1144363311411,
12.158,147.4,0.592,49.7,2.119999999999999,0.592,180.4,49.7,,,,,148.06800596514225,
12.177,147.4,0.591,49.6,2.1389999999999993,0.591,180.4,49.6,,,,,148.10341972657346,
12.194,147.4,0.592,49.7,2.1560000000000006,0.592,180.4,49.7,,,,,148.06800596514225,
12.216,147.4,0.593,49.7,2.177999999999999,0.593,180.4,49.7,,,,,148.02148196362842,
12.229,147.4,0.593,49.7,,,,,2.190999999999999,0.593,180.4,49.7,,146.50679338650977
12.256,147.4,0.592,49.6,,,,,2.218,0.592,180.4,49.6,,146.54051704993327
12.276,147.4,0.588,49.5,,,,,2.2379999999999995,0.588,180.4,49.5,,146.70789719637295
12.291,147.4,0.587,49.5,,,,,2.253,0.587,180.4,49.5,,146.75228727755405
12.317,147.4,0.589,49.4,,,,,2.279,0.589,180.4,49.4,,146.6523901319234
12.337,147.4,0.588,49.4,,,,,2.2989999999999995,0.588,180.4,49.4,,146.6968873817706
12.354,147.4,0.586,49.3,,,,,2.315999999999999,0.586,180.4,49.3,,146.7746382060425
12.374,147.4,0.586,49.2,,,,,2.3360000000000003,0.586,180.4,49.2,,146.76366643276066
12.386,147.4,0.583,49.1,,,,,2.347999999999999,0.583,180.4,49.1,,146.88526252827694
12.413,147.4,0.585,49.0,,,,,2.375,0.585,180.4,49.0,,146.7860243165445
12.435,147.4,0.581,49.0,,,,,2.3970000000000002,0.581,180.4,49.0,,146.96230753819907
12.451,147.4,0.58,48.8,,,,,2.4130000000000003,0.58,180.4,48.8,,146.9844286909766
12.477,147.4,0.578,48.8,,,,,2.439,0.578,180.4,48.8,,147.0719188260287
12.494,147.4,0.576,48.6,,,,,2.4559999999999995,0.576,180.4,48.6,,147.1374689967987
12.511,147.4,0.575,48.5,,,,,2.472999999999999,0.575,180.4,48.5,,147.17016332856335
12.534,147.4,0.572,48.4,,,,,2.4960000000000004,0.572,180.4,48.4,,147.28935105822939
12.556,147.4,0.57,48.2,,,,,2.517999999999999,0.57,180.4,48.2,,147.35417911739555
12.576,147.4,0.569,48.1,,,,,2.5380000000000003,0.569,180.4,48.1,,147.3865123933583
12.587,147.4,0.566,47.9,,,,,2.5489999999999995,0.566,180.4,47.9,,147.49379175402646
12.614,147.4,0.564,47.8,,,,,2.5760000000000005,0.564,180.4,47.8,,147.56850211338093
12.637,147.4,0.563,47.6,,,,,2.599,0.563,180.4,47.6,,147.58992698373035
12.655,147.4,0.559,47.4,,,,,2.616999999999999,0.559,180.4,47.4,,147.73829798841712
12.673,147.4,0.558,47.3,,,,,2.635,0.558,180.4,47.3,,147.76998200918317
12.695,147.4,0.555,47.1,,,,,2.657,0.555,180.4,47.1,,147.87510997059084
12.71,147.4,0.554,46.9,,,,,2.6720000000000006,0.554,180.4,46.9,,147.89617973477834
12.735,147.4,0.55,46.8,,,,,2.696999999999999,0.55,180.4,46.8,,148.05243311288436
12.756,147.4,0.548,46.6,,,,,2.718,0.548,180.4,46.6,,148.1146641512638
12.777,147.4,0.544,46.5,,,,,2.738999999999999,0.544,180.4,46.5,,148.26907163241353
12.796,147.4,0.542,46.3,,,,,2.757999999999999,0.542,180.4,46.3,,148.33054251786862
12.816,147.4,0.538,46.1,,,,,2.7780000000000005,0.538,180.4,46.1,,148.47301362344925
12.836,147.4,0.534,46.0,,,,,2.798,0.534,180.4,46.0,,148.6243446096718
12.852,147.5,0.531,45.9,,,,,2.814,0.531,180.5,45.9,,148.73449752162065
12.874,147.5,0.527,45.8,,,,,2.8360000000000003,0.527,180.5,45.8,,148.88356922782114
12.892,147.5,0.523,45.7,,,,,2.853999999999999,0.523,180.5,45.7,,149.03133984700207
12.916,147.6,0.517,45.6,,,,,2.878,0.517,180.6,45.6,,149.25541597703264
12.936,147.6,0.514,45.5,,,,,2.8979999999999997,0.514,180.6,45.5,,149.36148323549108
12.954,147.7,0.511,45.4,,,,,2.9160000000000004,0.511,180.7,45.4,,149.46684518242745
12.976,147.7,0.509,45.4,,,,,2.9380000000000006,0.509,180.7,45.4,,149.5430802042284
12.988,147.8,0.501,45.4,,,,,2.9499999999999993,0.501,180.8,45.4,,149.84441978996682
13.014,147.8,0.5,45.4,,,,,2.975999999999999,0.5,180.8,45.4,,149.88168218176926
13.035,147.9,0.495,45.2,,,,,2.997,0.495,180.9,45.2,,150.04797011966477
13.055,147.9,0.49,45.1,,,,,3.0169999999999995,0.49,180.9,45.1,,150.22160479941633
13.071,148.0,0.484,45.0,,,,,3.0329999999999995,0.484,181.0,45.0,,150.42905340731173
13.096,148.1,0.481,45.0,,,,,3.058,0.481,181.1,45.0,,150.53618577929444
13.105,148.2,0.477,45.0,,,,,3.067,0.477,181.2,45.0,,150.67776876642517
13.136,148.3,0.471,44.9,,,,,3.097999999999999,0.471,181.3,44.9,,150.87852422745385
13.156,148.3,0.467,44.9,,,,,3.1180000000000003,0.467,181.3,44.9,,151.01657533763705
13.17,148.4,0.462,44.8,,,,,3.1319999999999997,0.462,181.4,44.8,,151.1783515694195
13.194,148.5,0.457,44.8,,,,,3.1560000000000006,0.457,181.5,44.8,,151.3467256423057
13.216,148.6,0.454,44.7,,,,,3.177999999999999,0.454,181.6,44.7,,151.43804667529216
13.234,148.7,0.449,44.7,,,,,3.1959999999999997,0.449,181.7,44.7,,151.60290602736032
13.255,148.8,0.443,44.6,,,,,3.2170000000000005,0.443,181.8,44.6,,151.78933415778252
13.275,148.8,0.438,44.5,,,,,3.237,0.438,181.8,44.5,,151.9409835678107
13.287,148.9,0.433,44.3,,,,,3.2490000000000006,0.433,181.9,44.3,,152.0823005667851
13.314,149.0,0.432,44.2,,,,,3.276,0.432,182.0,44.2,,152.10539432071738
13.33,149.2,0.424,44.3,,,,,3.292,0.424,182.2,44.3,,152.3610324260854
13.354,149.3,0.42,44.3,,,,,3.315999999999999,0.42,182.3,44.3,,152.4825729264885
13.372,149.4,0.413,44.2,,,,,3.3339999999999996,0.413,182.4,44.2,,152.68389278319046
13.394,149.5,0.407,44.2,,,,,3.356,0.407,182.5,44.2,,152.85982556793422
13.414,149.6,0.404,44.1,,,,,3.3759999999999994,0.404,182.6,44.1,,152.93882252441458
13.435,149.7,0.399,43.9,,,,,3.3970000000000002,0.399,182.7,43.9,,153.06636204780128
13.454,149.9,0.395,43.9,,,,,3.4160000000000004,0.395,182.9,43.9,,153.17917579261248
13.472,150.0,0.388,43.9,,,,,3.4339999999999993,0.388,183.0,43.9,,153.3731343633716
13.484,150.1,0.383,43.8,,,,,3.4459999999999997,0.383,183.1,43.8,,153.50158742919348
13.502,150.2,0.379,43.7,,,,,3.4640000000000004,0.379,183.2,43.7,,153.601391090891
13.535,150.4,0.374,43.6,,,,,3.497,0.374,183.4,43.6,,153.72612328808592
13.55,150.5,0.37,43.6,,,,,3.5120000000000005,0.37,183.5,43.6,,153.8301416527873
13.575,150.6,0.366,43.6,,,,,3.536999999999999,0.366,183.6,43.6,,153.93271981690248
13.594,150.8,0.36,43.6,,,,,3.555999999999999,0.36,183.8,43.6,,154.08388668697614
13.613,151.0,0.356,43.5,,,,,3.5749999999999993,0.356,184.0,43.5,,154.1759447643786
13.629,151.1,0.35,43.5,,,,,3.5909999999999993,0.35,184.1,43.5,,154.321813819031
13.646,151.3,0.345,43.5,,,,,3.6080000000000005,0.345,184.3,43.5,,154.44089601981716
13.671,151.5,0.34,43.5,,,,,3.632999999999999,0.34,184.5,43.5,,154.55772790718746
13.693,151.6,0.335,43.5,,,,,3.6549999999999994,0.335,184.6,43.5,,154.6723094811418
13.713,151.8,0.332,43.6,,,,,3.674999999999999,0.332,184.8,43.6,,154.74648611321456
13.735,152.0,0.324,43.4,,,,,3.696999999999999,0.324,185.0,43.4,,154.9100991160443
13.752,152.1,0.326,43.4,,,,,3.7140000000000004,0.326,185.1,43.4,,154.8664824876195
13.771,152.3,0.321,43.3,,,,,3.7330000000000005,0.321,185.3,43.3,,154.96853357300282
13.793,152.5,0.316,43.4,,,,,3.754999999999999,0.316,185.5,43.4,,155.08096512827808
13.812,152.7,0.308,43.3,,,,,3.773999999999999,0.308,185.7,43.3,,155.23997797619646
13.827,152.9,0.305,43.6,,,,,3.7889999999999997,0.305,185.9,43.6,,155.31858696577785
13.854,153.1,0.301,43.7,,,,,3.815999999999999,0.301,186.1,43.7,,155.4037397330243
13.873,153.3,0.296,43.6,,,,,3.834999999999999,0.296,186.3,43.6,,155.49470521903058
13.894,153.5,0.293,43.5,,,,,3.856,0.293,186.5,43.5,,155.54595232869866
13.914,153.7,0.289,43.5,,,,,3.8759999999999994,0.289,186.7,43.5,,155.62087525604784
13.935,153.9,0.284,43.7,,,,,3.8970000000000002,0.284,186.9,43.7,,155.7238741855402
13.952,154.1,0.282,43.8,,,,,3.9139999999999997,0.282,187.1,43.8,,155.765480584838
13.973,154.4,0.277,43.9,,,,,3.9350000000000005,0.277,187.4,43.9,,155.8592710258364
13.993,154.6,0.273,44.0,,,,,3.955,0.273,187.6,44.0,,155.93366173739273
14.013,154.8,0.269,44.1,,,,,3.9749999999999996,0.269,187.8,44.1,,156.00647686385778
14.033,155.0,0.267,44.1,,,,,3.994999999999999,0.267,188.0,44.1,,156.03959187729336
14.053,155.2,0.262,44.2,,,,,4.015000000000001,0.262,188.2,44.2,,156.12612228775197
14.074,155.4,0.26,44.2,,,,,4.036,0.26,188.4,44.2,,156.15794281341567
14.094,155.6,0.256,44.2,,,,,4.055999999999999,0.256,188.6,44.2,,156.22050371430345
14.111,155.8,0.253,44.1,,,,,4.073,0.253,188.8,44.1,,156.2613155672391
14.132,156.0,0.25,44.1,,,,,4.093999999999999,0.25,189.0,44.1,,156.30653246682897
14.152,156.2,0.247,44.1,,,,,4.113999999999999,0.247,189.2,44.1,,156.3509392535891
14.173,156.4,0.244,44.2,,,,,4.135,0.244,189.4,44.2,,156.3995452134497
14.194,156.6,0.24,44.2,,,,,4.156000000000001,0.24,189.6,44.2,,156.45634531199275
14.21,156.8,0.238,44.1,,,,,4.172000000000001,0.238,189.8,44.1,,156.47929893689118
14.233,157.0,0.236,44.1,,,,,4.195,0.236,190.0,44.1,,156.5068331730553
14.249,157.2,0.234,44.1,,,,,4.211,0.234,190.2,44.1,,156.5340073590729
14.269,157.4,0.23,44.1,,,,,4.231,0.23,190.4,44.1,,156.58727558066843
14.292,157.6,0.227,44.1,,,,,4.254,0.227,190.6,44.1,,156.6262816152304
14.312,157.8,0.225,44.1,,,,,4.273999999999999,0.225,190.8,44.1,,156.65183557558854
14.332,158.0,0.224,44.2,,,,,4.2940000000000005,0.224,191.0,44.2,,156.6691437003032
14.352,158.1,0.223,44.3,,,,,4.314,0.223,191.1,44.3,,156.68632936475308
14.373,158.3,0.219,44.4,,,,,4.334999999999999,0.219,191.3,44.4,,156.7400838974555
14.388,158.4,0.217,44.3,,,,,4.35,0.217,191.4,44.3,,156.75954492095482
14.405,158.5,0.216,44.2,,,,,4.366999999999999,0.216,191.5,44.2,,156.76690169094138
