time,length,pressure,force,time_contraction,pressure_contraction,length_contraction,force_contraction,time_extension,pressure_extension,length_extension,force_extension,estimated_contraction_length,estimated_extension_length
10.011,160.5,0.213,45.5,0.0,0.213,192.5,45.5,,,,,157.60821902078487,
10.029,160.5,0.214,45.7,0.018000000000000682,0.214,192.5,45.7,,,,,157.60595839044692,
10.047,160.5,0.218,46.1,0.036000000000001364,0.218,192.5,46.1,,,,,157.57890216417425,
10.067,160.5,0.22,46.5,0.05600000000000094,0.22,192.5,46.5,,,,,157.57407139250014,
10.091,160.5,0.222,47.3,0.08000000000000007,0.222,192.5,47.3,,,,,157.58739274043222,
10.114,160.5,0.224,47.9,0.10300000000000153,0.224,192.5,47.9,,,,,157.5918102709105,
10.134,160.4,0.227,48.5,0.12300000000000111,0.227,192.4,48.5,,,,,157.5846697666588,
10.149,160.4,0.229,49.0,0.1379999999999999,0.229,192.4,49.0,,,,,157.584542652565,
10.168,160.3,0.233,49.4,0.15700000000000003,0.233,192.3,49.4,,,,,157.55569275067887,
10.192,160.1,0.234,49.7,0.18100000000000094,0.234,192.1,49.7,,,,,157.55794224104008,
10.213,159.8,0.239,50.0,0.20199999999999996,0.239,191.8,50.0,,,,,157.51083922813237,
10.234,159.6,0.24,50.1,0.22300000000000075,0.24,191.6,50.1,,,,,157.50317946290758,
10.242,159.2,0.242,49.9,0.23100000000000165,0.242,191.2,49.9,,,,,157.46792566023473,
10.277,158.9,0.246,49.5,0.266,0.246,190.9,49.5,,,,,157.39594432115933,
10.289,158.7,0.251,49.4,0.27800000000000047,0.251,190.7,49.4,,,,,157.32356236867707,
10.309,158.4,0.256,49.1,0.29800000000000004,0.256,190.4,49.1,,,,,157.23842414600486,
10.329,158.2,0.261,49.0,0.3180000000000014,0.261,190.2,49.0,,,,,157.16106588243878,
10.353,158.0,0.262,49.3,0.3420000000000005,0.262,190.0,49.3,,,,,157.16220737784232,
10.371,157.9,0.263,49.4,0.3600000000000012,0.263,189.9,49.4,,,,,157.15276910590876,
10.391,157.7,0.269,49.7,0.3800000000000008,0.269,189.7,49.7,,,,,157.0787912222338,
10.407,157.5,0.274,50.0,0.3960000000000008,0.274,189.5,50.0,,,,,157.0179365376112,
10.424,157.2,0.278,50.2,0.41300000000000026,0.278,189.2,50.2,,,,,156.96580587720908,
10.451,157.0,0.282,49.9,0.4400000000000013,0.282,189.0,49.9,,,,,156.88430236449923,
10.461,156.7,0.285,49.8,0.45000000000000107,0.285,188.7,49.8,,,,,156.82908791748946,
10.491,156.5,0.29,49.9,0.4800000000000004,0.29,188.5,49.9,,,,,156.7504687189339,
10.512,156.2,0.294,49.9,0.5010000000000012,0.294,188.2,49.9,,,,,156.6814132728489,
10.532,156.0,0.296,49.6,0.5210000000000008,0.296,188.0,49.6,,,,,156.6286905648105,
10.552,155.8,0.304,49.4,0.5410000000000004,0.304,187.8,49.4,,,,,156.4724081990365,
10.568,155.6,0.308,49.7,0.5570000000000004,0.308,187.6,49.7,,,,,156.41629536094268,
10.587,155.4,0.311,49.9,0.5760000000000005,0.311,187.4,49.9,,,,,156.37202161617705,
10.605,155.2,0.316,49.8,0.5940000000000012,0.316,187.2,49.8,,,,,156.26988394530122,
10.62,155.0,0.321,49.8,0.609,0.321,187.0,49.8,,,,,156.17166991885503,
10.651,154.8,0.326,49.9,0.6400000000000006,0.326,186.8,49.9,,,,,156.07764274491433,
10.669,154.6,0.329,50.0,0.6580000000000013,0.329,186.6,50.0,,,,,156.02282963874418,
10.683,154.4,0.335,49.9,0.6720000000000006,0.335,186.4,49.9,,,,,155.89139161729642,
10.711,154.2,0.341,50.0,0.7000000000000011,0.341,186.2,50.0,,,,,155.76989346595084,
10.729,154.0,0.345,50.2,0.718,0.345,186.0,50.2,,,,,155.69623283748413,
10.751,153.8,0.349,50.4,0.7400000000000002,0.349,185.8,50.4,,,,,155.62143278571108,
10.773,153.6,0.354,50.2,0.7620000000000005,0.354,185.6,50.2,,,,,155.49521779337397,
10.791,153.4,0.359,49.9,0.7800000000000011,0.359,185.4,49.9,,,,,155.35943465916097,
10.808,153.3,0.362,49.8,0.7970000000000006,0.362,185.3,49.8,,,,,155.28228482807737,
10.832,153.1,0.368,49.8,0.8210000000000015,0.368,185.1,49.8,,,,,155.13956650045287,
10.852,153.0,0.373,49.8,0.8410000000000011,0.373,185.0,49.8,,,,,155.0181840548986,
10.869,152.8,0.378,50.1,0.8580000000000005,0.378,184.8,50.1,,,,,154.9165591737735,
10.887,152.7,0.383,50.2,0.8760000000000012,0.383,184.7,50.2,,,,,154.79840342459298,
10.912,152.6,0.388,50.2,0.9010000000000016,0.388,184.6,50.2,,,,,154.6706887253202,
10.931,152.4,0.394,50.3,0.9199999999999999,0.394,184.4,50.3,,,,,154.52210384448907,
10.946,152.2,0.4,50.5,0.9350000000000005,0.4,184.2,50.5,,,,,154.3782444214431,
10.966,152.1,0.404,50.5,0.9550000000000001,0.404,184.1,50.5,,,,,154.27040201440428,
10.989,151.9,0.409,50.2,0.9780000000000015,0.409,183.9,50.2,,,,,154.10996014831105,
11.012,151.7,0.413,50.0,1.0010000000000012,0.413,183.7,50.0,,,,,153.982809893103,
11.032,151.6,0.418,49.9,1.0210000000000008,0.418,183.6,49.9,,,,,153.83352300559287,
11.051,151.5,0.422,49.7,1.040000000000001,0.422,183.5,49.7,,,,,153.7026467547011,
11.069,151.4,0.428,49.7,1.0580000000000016,0.428,183.4,49.7,,,,,153.52774379431202,
11.085,151.3,0.433,49.8,1.0740000000000016,0.433,183.3,49.8,,,,,153.3878315649368,
11.112,151.2,0.437,50.0,1.1010000000000009,0.437,183.2,50.0,,,,,153.28446145031072,
11.128,151.1,0.443,50.1,1.1170000000000009,0.443,183.1,50.1,,,,,153.11032489547324,
11.138,151.0,0.448,50.1,1.1270000000000007,0.448,183.0,50.1,,,,,152.9557896688966,
11.172,150.8,0.451,50.2,1.1610000000000014,0.451,182.8,50.2,,,,,152.87061138475434,
11.191,150.7,0.456,50.0,1.1800000000000015,0.456,182.7,50.0,,,,,152.69520111564253,
11.206,150.6,0.461,49.8,1.1950000000000003,0.461,182.6,49.8,,,,,152.517217740104,
11.232,150.5,0.466,49.7,1.221,0.466,182.5,49.7,,,,,152.34552966681827,
11.25,150.4,0.471,49.6,1.2390000000000008,0.471,182.4,49.6,,,,,152.17143978144563,
11.27,150.3,0.476,49.7,1.2590000000000003,0.476,182.3,49.7,,,,,152.013034452876,
11.287,150.2,0.479,49.8,1.2760000000000016,0.479,182.2,49.8,,,,,151.92064617217568,
11.305,150.1,0.483,49.8,1.2940000000000005,0.483,182.1,49.8,,,,,151.78415390324852,
11.321,150.1,0.488,49.8,1.3100000000000005,0.488,182.1,49.8,,,,,151.6115336077437,
11.348,150.0,0.493,49.8,1.3370000000000015,0.493,182.0,49.8,,,,,151.43668557963233,
11.371,149.9,0.497,49.9,1.3600000000000012,0.497,181.9,49.9,,,,,151.30461834684323,
11.39,149.8,0.5,49.9,1.3790000000000013,0.5,181.8,49.9,,,,,151.1976235482893,
11.409,149.8,0.504,49.9,1.3980000000000015,0.504,181.8,49.9,,,,,151.05371628662436,
11.429,149.7,0.509,49.9,1.418000000000001,0.509,181.7,49.9,,,,,150.87182725019733,
11.449,149.6,0.514,49.9,1.4380000000000006,0.514,181.6,49.9,,,,,150.68771048116375,
11.463,149.5,0.517,50.0,1.452,0.517,181.5,50.0,,,,,150.58593860194054,
11.491,149.4,0.521,49.9,1.4800000000000004,0.521,181.4,49.9,,,,,150.42620441373774,
11.511,149.4,0.522,49.8,1.5,0.522,181.4,49.8,,,,,150.37863612958526,
11.522,149.3,0.527,49.6,1.511000000000001,0.527,181.3,49.6,,,,,150.16876055080326,
11.551,149.3,0.53,49.6,1.540000000000001,0.53,181.3,49.6,,,,,150.05358799002022,
11.565,149.2,0.533,49.7,1.5540000000000003,0.533,181.2,49.7,,,,,149.94765751691713,
11.583,149.2,0.537,49.8,1.572000000000001,0.537,181.2,49.8,,,,,149.80196310225796,
11.609,149.1,0.541,50.0,1.5980000000000008,0.541,181.1,50.0,,,,,149.6651733357107,
11.625,149.1,0.543,50.0,1.6140000000000008,0.543,181.1,50.0,,,,,149.5861260549474,
11.643,149.0,0.548,49.9,1.6320000000000014,0.548,181.0,49.9,,,,,149.37663698300975,
11.671,149.0,0.549,49.9,1.6600000000000001,0.549,181.0,49.9,,,,,149.33651658494534,
11.691,148.9,0.552,49.8,1.6800000000000015,0.552,180.9,49.8,,,,,149.20524048147172,
11.71,148.9,0.556,49.8,1.6990000000000016,0.556,180.9,49.8,,,,,149.04272829570013,
11.729,148.8,0.559,49.7,1.718,0.559,180.8,49.7,,,,,148.90940681735668,
11.742,148.8,0.563,49.7,1.7310000000000016,0.563,180.8,49.7,,,,,148.7443293822455,
11.768,148.8,0.564,49.8,1.7570000000000014,0.564,180.8,49.8,,,,,148.71342667755235,
11.79,148.7,0.566,49.8,1.779,0.566,180.7,49.8,,,,,148.63021017997278,
11.808,148.7,0.569,49.8,1.7970000000000006,0.569,180.7,49.8,,,,,148.50471711382147,
11.831,148.7,0.57,49.7,1.8200000000000003,0.57,180.7,49.7,,,,,148.4520131625869,
11.848,148.6,0.572,49.7,1.8370000000000015,0.572,180.6,49.7,,,,,148.36769225894608,
11.868,148.6,0.574,49.7,1.857000000000001,0.574,180.6,49.7,,,,,148.28301491808818,
11.89,148.6,0.575,49.7,1.8790000000000013,0.575,180.6,49.7,,,,,148.24054258370288,
11.908,148.6,0.577,49.7,1.8970000000000002,0.577,180.6,49.7,,,,,148.15533058701942,
11.928,148.5,0.58,49.7,1.9170000000000016,0.58,180.5,49.7,,,,,148.02684427221232,
11.938,148.5,0.582,49.8,1.9270000000000014,0.582,180.5,49.8,,,,,147.95164645952255,
11.97,148.5,0.582,49.8,1.9590000000000014,0.582,180.5,49.8,,,,,147.95164645952255,
11.988,148.5,0.583,49.9,1.9770000000000003,0.583,180.5,49.9,,,,,147.91940301471976,
12.009,148.5,0.586,49.9,1.998000000000001,0.586,180.5,49.9,,,,,147.78941801566626,
12.03,148.4,0.586,49.8,2.019,0.586,180.4,49.8,,,,,147.7784411572395,
12.048,148.4,0.588,49.7,2.037000000000001,0.588,180.4,49.7,,,,,147.6802932900058,
12.065,148.4,0.588,49.7,2.0540000000000003,0.588,180.4,49.7,,,,,147.6802932900058,
12.089,148.4,0.588,49.8,2.078000000000001,0.588,180.4,49.8,,,,,147.69130385027242,
12.109,148.4,0.588,49.8,2.0980000000000008,0.588,180.4,49.8,,,,,147.69130385027242,
12.13,148.4,0.589,49.8,2.1190000000000015,0.589,180.4,49.8,,,,,147.64760153283248,
12.149,148.4,0.588,49.7,2.138,0.588,180.4,49.7,,,,,147.6802932900058,
12.171,148.4,0.589,49.7,2.16,0.589,180.4,49.7,,,,,147.6365734253608,
12.191,148.4,0.589,49.7,2.1800000000000015,0.589,180.4,49.7,,,,,147.6365734253608,
12.21,148.4,0.589,49.7,2.1990000000000016,0.589,180.4,49.7,,,,,147.6365734253608,
12.228,148.4,0.591,49.7,2.2170000000000005,0.591,180.4,49.7,,,,,147.54886636815803,
12.249,148.4,0.589,49.7,,,,,2.2380000000000013,0.589,180.4,49.7,,147.00466442111403
12.269,148.4,0.589,49.7,,,,,2.258000000000001,0.589,180.4,49.7,,147.00466442111403
12.285,148.4,0.589,49.7,,,,,2.274000000000001,0.589,180.4,49.7,,147.00466442111403
12.31,148.4,0.587,49.6,,,,,2.2990000000000013,0.587,180.4,49.6,,147.08978209443157
12.326,148.4,0.587,49.5,,,,,2.3150000000000013,0.587,180.4,49.5,,147.07838515269157
12.347,148.4,0.586,49.5,,,,,2.3360000000000003,0.586,180.4,49.5,,147.12653346404934
12.366,148.4,0.586,49.5,,,,,2.3550000000000004,0.586,180.4,49.5,,147.12653346404934
12.375,148.4,0.585,49.4,,,,,2.3640000000000008,0.585,180.4,49.4,,147.16322520540479
12.408,148.4,0.582,49.4,,,,,2.3970000000000002,0.582,180.4,49.4,,147.30684549816834
12.423,148.4,0.581,49.2,,,,,2.412000000000001,0.581,180.4,49.2,,147.33195778621015
12.449,148.4,0.58,49.1,,,,,2.4380000000000006,0.58,180.4,49.1,,147.36831227869894
12.46,148.4,0.578,49.0,,,,,2.4490000000000016,0.578,180.4,49.0,,147.4520659964889
12.482,148.4,0.576,48.9,,,,,2.471,0.576,180.4,48.9,,147.5355038727385
12.499,148.4,0.576,48.8,,,,,2.4880000000000013,0.576,180.4,48.8,,147.52431847607508
12.53,148.4,0.574,48.7,,,,,2.519,0.574,180.4,48.7,,147.60747873172036
12.547,148.4,0.571,48.6,,,,,2.5360000000000014,0.571,180.4,48.6,,147.73717172363445
12.564,148.4,0.57,48.4,,,,,2.553000000000001,0.57,180.4,48.4,,147.76178187115343
12.584,148.4,0.567,48.3,,,,,2.5730000000000004,0.567,180.4,48.3,,147.89054600560502
12.601,148.4,0.565,48.1,,,,,2.5900000000000016,0.565,180.4,48.1,,147.9613302331998
12.626,148.4,0.564,48.0,,,,,2.615,0.564,180.4,48.0,,147.99663290460364
12.65,148.4,0.561,47.8,,,,,2.639000000000001,0.561,180.4,47.8,,148.11307878571822
12.665,148.4,0.559,47.6,,,,,2.654,0.559,180.4,47.6,,148.18310836660987
12.684,148.4,0.556,47.5,,,,,2.673,0.556,180.4,47.5,,148.30930392101592
12.698,148.4,0.555,47.3,,,,,2.687000000000001,0.555,180.4,47.3,,148.33323118967616
12.724,148.4,0.553,47.1,,,,,2.713000000000001,0.553,180.4,47.1,,148.40250612386467
12.747,148.4,0.55,47.0,,,,,2.7360000000000007,0.55,180.4,47.0,,148.5273368361243
12.768,148.4,0.548,46.8,,,,,2.7570000000000014,0.548,180.4,46.8,,148.59593727257948
12.786,148.4,0.545,46.7,,,,,2.7750000000000004,0.545,180.4,46.7,,148.71956424694
12.81,148.4,0.543,46.5,,,,,2.7990000000000013,0.543,180.4,46.5,,148.78749018566185
12.828,148.4,0.539,46.3,,,,,2.817,0.539,180.4,46.3,,148.9435689567487
12.843,148.4,0.536,46.2,,,,,2.8320000000000007,0.536,180.4,46.2,,149.065006447653
12.867,148.5,0.533,46.0,,,,,2.8560000000000016,0.533,180.5,46.0,,149.17531830182628
12.873,148.5,0.528,45.9,,,,,2.862,0.528,180.5,45.9,,149.3816651747133
12.906,148.5,0.525,45.7,,,,,2.8950000000000014,0.525,180.5,45.7,,149.490100646803
12.923,148.5,0.52,45.6,,,,,2.912000000000001,0.52,180.5,45.6,,149.69296555625834
12.948,148.6,0.516,45.6,,,,,2.937000000000001,0.516,180.6,45.6,,149.86166019806885
12.969,148.6,0.514,45.4,,,,,2.958,0.514,180.6,45.4,,149.92542376158588
12.989,148.7,0.509,45.4,,,,,2.9780000000000015,0.509,180.7,45.4,,150.13329863648704
13.0,148.7,0.505,45.3,,,,,2.9890000000000008,0.505,180.7,45.3,,150.2880082540935
13.019,148.8,0.501,45.2,,,,,3.008000000000001,0.501,180.8,45.2,,150.44130250841323
13.048,148.8,0.497,45.2,,,,,3.037000000000001,0.497,180.8,45.2,,150.60285928568308
13.068,148.9,0.493,45.1,,,,,3.0570000000000004,0.493,180.9,45.1,,150.7532472581761
13.084,149.0,0.487,45.0,,,,,3.0730000000000004,0.487,181.0,45.0,,150.98092024228689
13.105,149.0,0.483,44.9,,,,,3.094000000000001,0.483,181.0,44.9,,151.12773202893638
13.121,149.1,0.478,44.9,,,,,3.110000000000001,0.478,181.1,44.9,,151.3209069570509
13.149,149.2,0.473,44.9,,,,,3.138,0.473,181.2,44.9,,151.51163565520554
13.168,149.3,0.468,44.9,,,,,3.157,0.468,181.3,44.9,,151.6999181234003
13.184,149.4,0.465,44.9,,,,,3.173,0.465,181.4,44.9,,151.8117134139364
13.203,149.5,0.459,44.9,,,,,3.192,0.459,181.5,44.9,,152.03266206665194
13.225,149.5,0.455,44.7,,,,,3.2140000000000004,0.455,181.5,44.7,,152.1602226596741
13.243,149.6,0.45,44.7,,,,,3.232000000000001,0.45,181.6,44.7,,152.3398853715991
13.267,149.7,0.445,44.6,,,,,3.2560000000000002,0.445,181.7,44.6,,152.5083990926683
13.274,149.8,0.442,44.5,,,,,3.263,0.442,181.8,44.5,,152.60496492014107
13.307,149.9,0.437,44.6,,,,,3.296000000000001,0.437,181.9,44.6,,152.78700664276465
13.324,150.0,0.431,44.6,,,,,3.3130000000000006,0.431,182.0,44.6,,152.99185263900426
13.344,150.1,0.426,44.6,,,,,3.333,0.426,182.1,44.6,,153.15986678291475
13.364,150.2,0.421,44.5,,,,,3.3530000000000015,0.421,182.2,44.5,,153.31718083439438
13.387,150.3,0.416,44.5,,,,,3.3760000000000012,0.416,182.3,44.5,,153.48039585417803
13.401,150.4,0.412,44.3,,,,,3.3900000000000006,0.412,182.4,44.3,,153.5930375282031
13.428,150.6,0.406,44.2,,,,,3.4170000000000016,0.406,182.6,44.2,,153.77557095830244
13.447,150.7,0.401,44.2,,,,,3.436,0.401,182.7,44.2,,153.93172729558523
13.463,150.8,0.396,44.1,,,,,3.452,0.396,182.8,44.1,,154.07765376587736
13.486,150.9,0.39,44.1,,,,,3.4750000000000014,0.39,182.9,44.1,,154.2589888740693
13.502,151.1,0.387,44.1,,,,,3.4910000000000014,0.387,183.1,44.1,,154.34833546398693
13.526,151.2,0.382,44.0,,,,,3.5150000000000006,0.382,183.2,44.0,,154.4877680530234
13.547,151.4,0.377,44.0,,,,,3.5360000000000014,0.377,183.4,44.0,,154.63236915808457
13.567,151.5,0.374,44.0,,,,,3.556000000000001,0.374,183.5,44.0,,154.71795563074056
13.587,151.7,0.368,44.2,,,,,3.5760000000000005,0.368,183.7,44.2,,154.90100767425753
13.608,151.8,0.363,44.2,,,,,3.5970000000000013,0.363,183.8,44.2,,155.03857266384514
13.624,151.9,0.359,44.1,,,,,3.6130000000000013,0.359,183.9,44.1,,155.13977041778108
13.643,152.1,0.354,44.0,,,,,3.6320000000000014,0.354,184.1,44.0,,155.26602679948263
13.659,152.2,0.349,44.0,,,,,3.6480000000000015,0.349,184.2,44.0,,155.39692901676844
13.687,152.4,0.344,43.9,,,,,3.676,0.344,184.4,43.9,,155.51857383254787
13.706,152.5,0.34,43.7,,,,,3.6950000000000003,0.34,184.5,43.7,,155.60618165950424
13.721,152.7,0.335,43.7,,,,,3.710000000000001,0.335,184.7,43.7,,155.73051444028118
13.748,152.9,0.33,43.7,,,,,3.737,0.33,184.9,43.7,,155.8524009910982
13.767,153.1,0.326,43.9,,,,,3.7560000000000002,0.326,185.1,43.9,,155.9610966117078
13.78,153.3,0.322,44.1,,,,,3.769,0.322,185.3,44.1,,156.06793151708112
13.8,153.5,0.318,44.2,,,,,3.7890000000000015,0.318,185.5,44.2,,156.1665772219384
13.825,153.6,0.313,44.3,,,,,3.814,0.313,185.6,44.3,,156.2859150614139
13.846,153.8,0.308,44.4,,,,,3.835000000000001,0.308,185.8,44.4,,156.40262088596248
13.867,153.9,0.305,44.2,,,,,3.8560000000000016,0.305,185.9,44.2,,156.45555605759242
13.887,154.1,0.3,44.0,,,,,3.8760000000000012,0.3,186.1,44.0,,156.55031625669167
13.907,154.3,0.297,43.8,,,,,3.896000000000001,0.297,186.3,43.8,,156.60143282095152
13.924,154.5,0.293,43.8,,,,,3.9130000000000003,0.293,186.5,43.8,,156.68419001321143
13.942,154.7,0.289,44.0,,,,,3.931000000000001,0.289,186.7,44.0,,156.7769496873263
13.961,155.0,0.285,44.2,,,,,3.950000000000001,0.285,187.0,44.2,,156.8678486462049
13.985,155.2,0.28,44.3,,,,,3.974,0.28,187.2,44.3,,156.97042535171167
14.005,155.3,0.277,44.3,,,,,3.9940000000000015,0.277,187.3,44.3,,157.02736970320717
14.026,155.5,0.274,44.2,,,,,4.015000000000001,0.274,187.5,44.2,,157.07792628161528
14.046,155.7,0.269,44.2,,,,,4.035,0.269,187.7,44.2,,157.1695021479569
14.066,155.9,0.267,44.1,,,,,4.0550000000000015,0.267,187.9,44.1,,157.20007197653194
14.083,156.0,0.264,44.0,,,,,4.072000000000001,0.264,188.0,44.0,,157.2479935267633
14.101,156.2,0.261,44.0,,,,,4.090000000000002,0.261,188.2,44.0,,157.30040912116314
14.117,156.4,0.256,43.9,,,,,4.106000000000002,0.256,188.4,43.9,,157.38064299960428
14.133,156.6,0.253,43.9,,,,,4.122,0.253,188.6,43.9,,157.43076621471837
14.165,156.8,0.252,43.8,,,,,4.154,0.252,188.8,43.8,,157.4421853483555
14.184,157.0,0.249,43.8,,,,,4.173,0.249,189.0,43.8,,157.4911903745646
14.202,157.2,0.246,43.9,,,,,4.191000000000001,0.246,189.2,43.9,,157.54429566137406
14.22,157.4,0.242,43.9,,,,,4.209000000000001,0.242,189.4,43.9,,157.6070169485269
14.246,157.6,0.24,44.0,,,,,4.235000000000001,0.24,189.6,44.0,,157.6426602839662
14.26,157.8,0.238,44.0,,,,,4.2490000000000006,0.238,189.8,44.0,,157.67300510124147
14.284,158.0,0.234,44.0,,,,,4.2730000000000015,0.234,190.0,44.0,,157.7325205454113
14.304,158.2,0.231,44.0,,,,,4.293000000000001,0.231,190.2,44.0,,157.7761297119555
14.325,158.4,0.23,44.0,,,,,4.314,0.23,190.4,44.0,,157.79047040240678
14.336,158.5,0.229,44.1,,,,,4.325000000000001,0.229,190.5,44.1,,157.80937857858729
14.363,158.7,0.227,44.3,,,,,4.352,0.227,190.7,44.3,,157.8467920402582
14.386,158.8,0.224,44.3,,,,,4.375,0.224,190.8,44.3,,157.88817836920882
14.402,159.0,0.222,44.2,,,,,4.391,0.222,191.0,44.2,,157.91074357112865
