time,length,pressure,force,time_contraction,pressure_contraction,length_contraction,force_contraction,time_extension,pressure_extension,length_extension,force_extension,estimated_contraction_length,estimated_extension_length
10.022,159.3,0.222,46.8,0.0,0.222,189.3,46.8,,,,,154.41049201221506,
10.042,159.3,0.224,47.0,0.019999999999999574,0.224,189.3,47.0,,,,,154.40939211887817,
10.056,159.3,0.224,47.2,0.03399999999999892,0.224,189.3,47.2,,,,,154.41156391905997,
10.083,159.3,0.225,47.6,0.06099999999999994,0.225,189.3,47.6,,,,,154.41429977083342,
10.1,159.3,0.229,48.0,0.0779999999999994,0.229,189.3,48.0,,,,,154.41204117152296,
10.124,159.2,0.231,48.6,0.10200000000000031,0.231,189.2,48.6,,,,,154.41543557867433,
10.14,159.2,0.235,49.3,0.11800000000000033,0.235,189.2,49.3,,,,,154.41653827132131,
10.165,159.1,0.236,49.8,0.1429999999999989,0.236,189.1,49.8,,,,,154.42072903183063,
10.182,159.0,0.24,50.3,0.16000000000000014,0.24,189.0,50.3,,,,,154.4194473811175,
10.2,158.8,0.242,50.6,0.17799999999999905,0.242,188.8,50.6,,,,,154.4193730394731,
10.222,158.6,0.246,50.7,0.1999999999999993,0.246,188.6,50.7,,,,,154.41263159771253,
10.242,158.3,0.25,50.7,0.22000000000000064,0.25,188.3,50.7,,,,,154.4040557232119,
10.257,158.1,0.252,50.6,0.23499999999999943,0.252,188.1,50.6,,,,,154.3981910314799,
10.283,157.8,0.256,50.4,0.26099999999999923,0.256,187.8,50.4,,,,,154.38589486528014,
10.303,157.5,0.26,50.2,0.2810000000000006,0.26,187.5,50.2,,,,,154.3728191078986,
10.324,157.3,0.262,50.1,0.3019999999999996,0.262,187.3,50.1,,,,,154.3659799271894,
10.339,157.1,0.267,50.0,0.31700000000000017,0.267,187.1,50.0,,,,,154.35023657382982,
10.36,156.9,0.271,50.0,0.3379999999999992,0.271,186.9,50.0,,,,,154.33804024776026,
10.377,156.7,0.275,50.3,0.3550000000000004,0.275,186.7,50.3,,,,,154.32993652365514,
10.402,156.6,0.279,50.6,0.379999999999999,0.279,186.6,50.6,,,,,154.32139132983556,
10.423,156.4,0.282,50.7,0.4009999999999998,0.282,186.4,50.7,,,,,154.31258598021137,
10.433,156.1,0.286,50.8,0.4109999999999996,0.286,186.1,50.8,,,,,154.29972571424622,
10.448,155.8,0.29,50.8,0.42600000000000016,0.29,185.8,50.8,,,,,154.28441889944457,
10.48,155.6,0.296,50.6,0.4580000000000002,0.296,185.6,50.6,,,,,154.25626698983035,
10.495,155.4,0.3,50.4,0.472999999999999,0.3,185.4,50.4,,,,,154.2350325137494,
10.513,155.1,0.304,50.5,0.49099999999999966,0.304,185.1,50.5,,,,,154.21863511280515,
10.538,154.9,0.308,50.4,0.516,0.308,184.9,50.4,,,,,154.1974481311119,
10.562,154.8,0.313,50.3,0.5399999999999991,0.313,184.8,50.3,,,,,154.1700871254232,
10.582,154.6,0.318,50.4,0.5600000000000005,0.318,184.6,50.4,,,,,154.1454970169987,
10.603,154.4,0.322,50.6,0.5809999999999995,0.322,184.4,50.6,,,,,154.12755710920268,
10.622,154.2,0.327,50.7,0.5999999999999996,0.327,184.2,50.7,,,,,154.1006861523433,
10.641,154.1,0.33,50.7,0.6189999999999998,0.33,184.1,50.7,,,,,154.08250359730803,
10.655,153.9,0.337,50.8,0.6329999999999991,0.337,183.9,50.8,,,,,154.04036679241315,
10.68,153.7,0.341,51.0,0.6579999999999995,0.341,183.7,51.0,,,,,154.018601005009,
10.701,153.5,0.346,51.3,0.6790000000000003,0.346,183.5,51.3,,,,,153.99160409170156,
10.717,153.2,0.35,51.2,0.6950000000000003,0.35,183.2,51.2,,,,,153.96009647532938,
10.737,153.0,0.356,50.9,0.7149999999999999,0.356,183.0,50.9,,,,,153.9063701861198,
10.76,152.8,0.36,50.6,0.7379999999999995,0.36,182.8,50.6,,,,,153.8659440077,
10.782,152.7,0.365,50.6,0.7599999999999998,0.365,182.7,50.6,,,,,153.82425699759528,
10.8,152.6,0.37,50.7,0.7780000000000005,0.37,182.6,50.7,,,,,153.7838023798935,
10.816,152.5,0.376,50.8,0.7940000000000005,0.376,182.5,50.8,,,,,153.7324289127609,
10.84,152.3,0.38,51.1,0.8179999999999996,0.38,182.3,51.1,,,,,153.7043411890306,
10.855,152.2,0.385,51.3,0.8330000000000002,0.385,182.2,51.3,,,,,153.66232552979145,
10.881,152.0,0.39,51.4,0.859,0.39,182.0,51.4,,,,,153.6153246263341,
10.902,151.9,0.395,51.5,0.879999999999999,0.395,181.9,51.5,,,,,153.56653536061546,
10.919,151.7,0.4,51.4,0.8970000000000002,0.4,181.7,51.4,,,,,153.50865998384896,
10.935,151.5,0.405,51.2,0.9130000000000003,0.405,181.5,51.2,,,,,153.44475446567267,
10.95,151.4,0.411,50.9,0.927999999999999,0.411,181.4,50.9,,,,,153.3623567385342,
10.976,151.2,0.416,50.9,0.9540000000000006,0.416,181.2,50.9,,,,,153.30069258782655,
11.0,151.2,0.421,51.1,0.9779999999999998,0.421,181.2,51.1,,,,,153.24504848957775,
11.021,151.0,0.426,51.3,0.9990000000000006,0.426,181.0,51.3,,,,,153.18761631255376,
11.041,150.9,0.432,51.4,1.0190000000000001,0.432,180.9,51.4,,,,,153.11020075493462,
11.062,150.8,0.435,51.5,1.0399999999999991,0.435,180.8,51.5,,,,,153.0725654261202,
11.082,150.7,0.442,51.7,1.0600000000000005,0.442,180.7,51.7,,,,,152.9804854429647,
11.1,150.5,0.445,51.6,1.0779999999999994,0.445,180.5,51.6,,,,,152.93113850382676,
11.12,150.4,0.451,51.3,1.097999999999999,0.451,180.4,51.3,,,,,152.8245424133275,
11.13,150.3,0.456,51.2,1.1080000000000005,0.456,180.3,51.2,,,,,152.73972593306453,
11.16,150.2,0.461,51.2,1.138,0.461,180.2,51.2,,,,,152.65723349695855,
11.181,150.1,0.465,51.2,1.158999999999999,0.465,180.1,51.2,,,,,152.58940867182585,
11.202,150.0,0.47,51.3,1.1799999999999997,0.47,180.0,51.3,,,,,152.5076348429733,
11.221,150.0,0.473,51.6,1.1989999999999998,0.473,180.0,51.6,,,,,152.47040679869536,
11.242,149.9,0.478,51.7,1.2200000000000006,0.478,179.9,51.7,,,,,152.38517916042852,
11.262,149.8,0.483,51.7,1.2400000000000002,0.483,179.8,51.7,,,,,152.2918906013049,
11.274,149.7,0.489,51.7,1.251999999999999,0.489,179.7,51.7,,,,,152.1763690526342,
11.292,149.5,0.494,51.7,1.2699999999999996,0.494,179.5,51.7,,,,,152.0770762224234,
11.308,149.4,0.499,51.6,1.2859999999999996,0.499,179.4,51.6,,,,,151.96886647032827,
11.34,149.3,0.501,51.3,1.3179999999999996,0.501,179.3,51.3,,,,,151.9086040545254,
11.358,149.3,0.508,51.1,1.3360000000000003,0.508,179.3,51.1,,,,,151.745662454753,
11.378,149.2,0.51,51.2,1.3559999999999999,0.51,179.2,51.2,,,,,151.70808515714046,
11.398,149.1,0.514,51.1,1.3759999999999994,0.514,179.1,51.1,,,,,151.6120965860389,
11.414,149.1,0.517,51.2,1.3919999999999995,0.517,179.1,51.2,,,,,151.55040908782848,
11.442,149.0,0.522,51.3,1.42,0.522,179.0,51.3,,,,,151.4410525205691,
11.459,149.0,0.527,51.4,1.4369999999999994,0.527,179.0,51.4,,,,,151.32898582294388,
11.479,148.9,0.531,51.5,1.456999999999999,0.531,178.9,51.5,,,,,151.23878084753096,
11.497,148.8,0.534,51.6,1.4749999999999996,0.534,178.8,51.6,,,,,151.17179710045932,
11.515,148.8,0.538,51.4,1.4930000000000003,0.538,178.8,51.4,,,,,151.05660423858546,
11.539,148.7,0.542,51.3,1.5169999999999995,0.542,178.7,51.3,,,,,150.94634047777004,
11.546,148.7,0.544,51.3,1.5239999999999991,0.544,178.7,51.3,,,,,150.8941194364247,
11.579,148.6,0.548,51.4,1.5570000000000004,0.548,178.6,51.4,,,,,150.79581456650303,
11.596,148.6,0.553,51.4,1.5739999999999998,0.553,178.6,51.4,,,,,150.66061537299086,
11.612,148.5,0.556,51.4,1.5899999999999999,0.556,178.5,51.4,,,,,150.57793613845928,
11.639,148.5,0.56,51.4,1.616999999999999,0.56,178.5,51.4,,,,,150.4658601244516,
11.66,148.4,0.561,51.4,1.638,0.561,178.4,51.4,,,,,150.4375110120109,
11.68,148.4,0.564,51.3,1.6579999999999995,0.564,178.4,51.3,,,,,150.34345567976817,
11.701,148.3,0.567,51.1,1.6790000000000003,0.567,178.3,51.1,,,,,150.23965793195816,
11.72,148.3,0.571,51.2,1.6980000000000004,0.571,178.3,51.2,,,,,150.12975797883806,
11.736,148.3,0.574,51.3,1.7140000000000004,0.574,178.3,51.3,,,,,150.04822770507525,
11.76,148.2,0.576,51.2,1.7379999999999995,0.576,178.2,51.2,,,,,149.97891426904198,
11.776,148.2,0.578,51.2,1.7539999999999996,0.578,178.2,51.2,,,,,149.9176166295241,
11.799,148.1,0.581,51.2,1.7769999999999992,0.581,178.1,51.2,,,,,149.82463368070444,
11.819,148.1,0.583,51.1,1.7970000000000006,0.583,178.1,51.1,,,,,149.75305744095758,
11.839,148.1,0.585,51.1,1.8170000000000002,0.585,178.1,51.1,,,,,149.6897433591557,
11.86,148.0,0.587,51.1,1.8379999999999992,0.587,178.0,51.1,,,,,149.62586789354282,
11.878,148.0,0.589,51.0,1.8559999999999999,0.589,178.0,51.0,,,,,149.55231138581746,
11.901,148.0,0.591,50.9,1.8789999999999996,0.591,178.0,50.9,,,,,149.47803550747244,
11.914,148.0,0.593,51.0,1.8919999999999995,0.593,178.0,51.0,,,,,149.42158436513813,
11.939,147.9,0.593,51.0,1.9169999999999998,0.593,177.9,51.0,,,,,149.42158436513813,
11.959,147.9,0.597,51.0,1.9369999999999994,0.597,177.9,51.0,,,,,149.28857083713376,
11.978,147.9,0.596,51.0,1.9559999999999995,0.596,177.9,51.0,,,,,149.32203966439266,
11.999,147.9,0.598,51.0,1.9770000000000003,0.598,177.9,51.0,,,,,149.25495786294297,
12.02,147.9,0.599,51.0,1.9979999999999993,0.599,177.9,51.0,,,,,149.22120043176426,
12.041,147.9,0.6,50.9,2.019,0.6,177.9,50.9,,,,,149.1777674460782,
12.06,147.8,0.6,51.0,2.0380000000000003,0.6,177.8,51.0,,,,,149.1872982335416,
12.078,147.8,0.602,50.9,2.055999999999999,0.602,177.8,50.9,,,,,149.10945243684193,
12.094,147.8,0.603,50.9,2.071999999999999,0.603,177.8,50.9,,,,,149.07507642097346,
12.119,147.8,0.603,50.9,2.0969999999999995,0.603,177.8,50.9,,,,,149.07507642097346,
12.139,147.8,0.602,50.9,2.116999999999999,0.602,177.8,50.9,,,,,149.10945243684193,
12.159,147.8,0.603,50.9,2.1370000000000005,0.603,177.8,50.9,,,,,149.07507642097346,
12.18,147.8,0.604,50.8,2.1579999999999995,0.604,177.8,50.8,,,,,149.0308662797935,
12.198,147.8,0.604,50.8,,,,,2.176,0.604,177.8,50.8,,150.06878074521632
12.221,147.8,0.604,50.8,,,,,2.199,0.604,177.8,50.8,,150.06878074521632
12.241,147.8,0.604,50.8,,,,,2.2189999999999994,0.604,177.8,50.8,,150.06878074521632
12.257,147.8,0.603,50.8,,,,,2.2349999999999994,0.603,177.8,50.8,,150.10831705010173
12.278,147.8,0.603,50.7,,,,,2.2560000000000002,0.603,177.8,50.7,,150.09862875328514
12.298,147.8,0.602,50.7,,,,,2.276,0.602,177.8,50.7,,150.1380407759213
12.319,147.8,0.602,50.6,,,,,2.2970000000000006,0.602,177.8,50.6,,150.128382742068
12.34,147.8,0.6,50.6,,,,,2.3179999999999996,0.6,177.8,50.6,,150.20679295381447
12.36,147.8,0.599,50.5,,,,,2.337999999999999,0.599,177.8,50.5,,150.23620555100862
12.38,147.8,0.598,50.4,,,,,2.3580000000000005,0.598,177.8,50.4,,150.265524817521
12.397,147.8,0.597,50.3,,,,,2.375,0.597,177.8,50.3,,150.29475090168805
12.418,147.8,0.596,50.2,,,,,2.395999999999999,0.596,177.8,50.2,,150.32388395184626
12.438,147.8,0.596,50.2,,,,,2.4160000000000004,0.596,177.8,50.2,,150.32388395184626
12.459,147.8,0.593,50.1,,,,,2.4369999999999994,0.593,177.8,50.1,,150.4294446361948
12.479,147.8,0.591,50.0,,,,,2.456999999999999,0.591,177.8,50.0,,150.49604082621397
12.499,147.8,0.589,49.8,,,,,2.4770000000000003,0.589,177.8,49.8,,150.55292704254526
12.52,147.8,0.588,49.7,,,,,2.4979999999999993,0.588,177.8,49.7,,150.58123251989818
12.54,147.8,0.587,49.6,,,,,2.517999999999999,0.587,177.8,49.6,,150.6094464411579
12.557,147.8,0.585,49.5,,,,,2.535,0.585,177.8,49.5,,150.67469446040124
12.578,147.8,0.582,49.4,,,,,2.555999999999999,0.582,177.8,49.4,,150.77613354243067
12.597,147.8,0.582,49.3,,,,,2.5749999999999993,0.582,177.8,49.3,,150.7671495301784
12.618,147.8,0.58,49.1,,,,,2.596,0.58,177.8,49.1,,150.82227781707155
12.639,147.8,0.577,49.0,,,,,2.616999999999999,0.577,177.8,49.0,,150.92195996402043
12.658,147.8,0.576,48.9,,,,,2.6359999999999992,0.576,177.8,48.9,,150.94906088649304
12.679,147.8,0.574,48.8,,,,,2.657,0.574,177.8,48.8,,151.01172421073426
12.696,147.8,0.572,48.6,,,,,2.6739999999999995,0.572,177.8,48.6,,151.06524287136457
12.717,147.8,0.57,48.5,,,,,2.6950000000000003,0.57,177.8,48.5,,151.12701024671847
12.737,147.8,0.566,48.3,,,,,2.715,0.566,177.8,48.3,,151.24910837966073
12.757,147.8,0.563,48.1,,,,,2.7349999999999994,0.563,177.8,48.1,,151.3352496433354
12.778,147.8,0.56,47.9,,,,,2.7560000000000002,0.56,177.8,47.9,,151.4204244197502
12.792,147.8,0.556,47.7,,,,,2.7699999999999996,0.556,177.8,47.7,,151.5379259854402
12.818,147.8,0.553,47.5,,,,,2.7959999999999994,0.553,177.8,47.5,,151.62080440280764
12.839,147.8,0.549,47.3,,,,,2.817,0.549,177.8,47.3,,151.7351147575843
12.859,147.9,0.544,47.2,,,,,2.8369999999999997,0.544,177.9,47.2,,151.88703441194096
12.876,147.9,0.542,47.0,,,,,2.853999999999999,0.542,177.9,47.0,,151.93458056629433
12.897,147.9,0.537,46.9,,,,,2.875,0.537,177.9,46.9,,152.08209910491283
12.918,147.9,0.533,46.8,,,,,2.895999999999999,0.533,177.9,46.8,,152.19626088877865
12.938,148.0,0.53,46.8,,,,,2.9160000000000004,0.53,178.0,46.8,,152.28599402256995
12.958,148.0,0.525,46.7,,,,,2.936,0.525,178.0,46.7,,152.42558564641666
12.978,148.0,0.521,46.6,,,,,2.9559999999999995,0.521,178.0,46.6,,152.5335542092291
12.998,148.1,0.517,46.4,,,,,2.975999999999999,0.517,178.1,46.4,,152.63270490646414
13.019,148.1,0.512,46.3,,,,,2.997,0.512,178.1,46.3,,152.7642612706595
13.035,148.2,0.508,46.2,,,,,3.013,0.508,178.2,46.2,,152.86595325034352
13.057,148.2,0.504,46.2,,,,,3.035,0.504,178.2,46.2,,152.97214039115022
13.077,148.3,0.499,46.1,,,,,3.0549999999999997,0.499,178.3,46.1,,153.09558529452093
13.097,148.4,0.494,45.9,,,,,3.0749999999999993,0.494,178.4,45.9,,153.2099144229238
13.119,148.4,0.49,45.9,,,,,3.0969999999999995,0.49,178.4,45.9,,153.30902238152296
13.138,148.5,0.486,45.7,,,,,3.1159999999999997,0.486,178.5,45.7,,153.39433211154753
13.158,148.5,0.481,45.6,,,,,3.1359999999999992,0.481,178.5,45.6,,153.50731710389982
13.176,148.6,0.477,45.5,,,,,3.154,0.477,178.6,45.5,,153.59451085365222
13.196,148.7,0.471,45.5,,,,,3.1739999999999995,0.471,178.7,45.5,,153.73009824075208
13.216,148.8,0.466,45.5,,,,,3.193999999999999,0.466,178.8,45.5,,153.8396732809739
13.237,148.9,0.46,45.4,,,,,3.215,0.46,178.9,45.4,,153.96205217415755
13.256,149.0,0.456,45.4,,,,,3.234,0.456,179.0,45.4,,154.04473653919288
13.273,149.1,0.451,45.4,,,,,3.2509999999999994,0.451,179.1,45.4,,154.1454226669409
13.297,149.2,0.448,45.4,,,,,3.2750000000000004,0.448,179.2,45.4,,154.20442793248253
13.318,149.3,0.443,45.4,,,,,3.2959999999999994,0.443,179.3,45.4,,154.3004571343444
13.338,149.4,0.437,45.3,,,,,3.315999999999999,0.437,179.4,45.3,,154.40749905515094
13.356,149.5,0.432,45.2,,,,,3.3339999999999996,0.432,179.5,45.2,,154.49314532102477
13.375,149.6,0.427,45.1,,,,,3.3529999999999998,0.427,179.6,45.1,,154.5762960211519
13.396,149.7,0.422,45.0,,,,,3.3740000000000006,0.422,179.7,45.0,,154.65698910968004
13.416,149.8,0.416,44.9,,,,,3.394,0.416,179.8,44.9,,154.75141156995812
13.438,149.9,0.412,44.8,,,,,3.4160000000000004,0.412,179.9,44.8,,154.81115426853012
13.457,150.0,0.407,44.9,,,,,3.4350000000000005,0.407,180.0,44.9,,154.8920757523926
13.476,150.2,0.401,44.9,,,,,3.4540000000000006,0.401,180.2,44.9,,154.98126094755898
13.494,150.3,0.398,45.0,,,,,3.4719999999999995,0.398,180.3,45.0,,155.0279660721072
13.514,150.4,0.393,45.0,,,,,3.491999999999999,0.393,180.4,45.0,,155.09795904998526
13.536,150.6,0.388,45.0,,,,,3.5139999999999993,0.388,180.6,45.0,,155.16553860311316
13.556,150.7,0.383,44.9,,,,,3.533999999999999,0.383,180.7,44.9,,155.22763300987756
13.576,150.8,0.378,44.9,,,,,3.5540000000000003,0.378,180.8,44.9,,155.2906300916131
13.596,151.0,0.373,44.9,,,,,3.574,0.373,181.0,44.9,,155.35134588965155
13.617,151.1,0.368,44.7,,,,,3.5950000000000006,0.368,181.1,44.7,,155.40422219796062
13.638,151.2,0.363,44.6,,,,,3.6159999999999997,0.363,181.2,44.6,,155.45800972431485
13.654,151.4,0.359,44.6,,,,,3.6319999999999997,0.359,181.4,44.6,,155.5017333544328
13.675,151.5,0.354,44.5,,,,,3.6530000000000005,0.354,181.5,44.5,,155.5519535056599
13.695,151.7,0.35,44.6,,,,,3.673,0.35,181.7,44.6,,155.59518994809935
13.716,151.9,0.345,44.6,,,,,3.693999999999999,0.345,181.9,44.6,,155.64424113108225
13.736,152.0,0.34,44.7,,,,,3.7140000000000004,0.34,182.0,44.7,,155.69356398258674
13.756,152.2,0.335,44.7,,,,,3.734,0.335,182.2,44.7,,155.73858592496583
13.778,152.3,0.332,44.6,,,,,3.7560000000000002,0.332,182.3,44.6,,155.7625610591826
13.797,152.5,0.327,44.5,,,,,3.7750000000000004,0.327,182.5,44.5,,155.80260794390202
13.814,152.6,0.322,44.4,,,,,3.792,0.322,182.6,44.4,,155.84098630932172
13.834,152.8,0.317,44.3,,,,,3.8119999999999994,0.317,182.8,44.3,,155.8777341095894
13.855,153.0,0.315,44.2,,,,,3.833,0.315,183.0,44.2,,155.89087184095376
13.872,153.2,0.308,44.3,,,,,3.8499999999999996,0.308,183.2,44.3,,155.9430394781796
13.895,153.4,0.305,44.3,,,,,3.8729999999999993,0.305,183.4,44.3,,155.96359410549502
13.916,153.6,0.302,44.4,,,,,3.894,0.302,183.6,44.4,,155.98521470743796
13.937,153.7,0.296,44.5,,,,,3.914999999999999,0.296,183.7,44.5,,156.0248944072459
13.957,153.9,0.294,44.5,,,,,3.9350000000000005,0.294,183.9,44.5,,156.0370679823669
13.971,154.1,0.289,44.4,,,,,3.949,0.289,184.1,44.4,,156.06495593651272
13.994,154.2,0.285,44.4,,,,,3.9719999999999995,0.285,184.2,44.4,,156.0874219691634
14.012,154.4,0.282,44.2,,,,,3.99,0.282,184.4,44.2,,156.10087843677124
14.036,154.6,0.278,44.1,,,,,4.013999999999999,0.278,184.6,44.1,,156.12048044030746
14.056,154.8,0.274,44.1,,,,,4.033999999999999,0.274,184.8,44.1,,156.14057609245432
14.076,155.0,0.272,44.3,,,,,4.054,0.272,185.0,44.3,,156.15283711717288
14.089,155.2,0.268,44.4,,,,,4.067,0.268,185.2,44.4,,156.17276273043905
14.109,155.4,0.264,44.5,,,,,4.087,0.264,185.4,44.5,,156.19176298975916
14.134,155.6,0.262,44.6,,,,,4.112,0.262,185.6,44.6,,156.20150399803725
14.154,155.8,0.258,44.6,,,,,4.132,0.258,185.8,44.6,,156.2180313615938
14.174,155.9,0.256,44.5,,,,,4.151999999999999,0.256,185.9,44.5,,156.22490478424052
14.189,156.1,0.252,44.6,,,,,4.167,0.252,186.1,44.6,,156.24137544677947
14.216,156.3,0.25,44.6,,,,,4.193999999999999,0.25,186.3,44.6,,156.24878243965762
14.236,156.5,0.247,44.6,,,,,4.214,0.247,186.5,44.6,,156.259551829981
14.255,156.7,0.244,44.7,,,,,4.2330000000000005,0.244,186.7,44.7,,156.27090814786396
14.273,156.9,0.241,44.8,,,,,4.2509999999999994,0.241,186.9,44.8,,156.28182293154558
14.292,157.0,0.24,44.7,,,,,4.27,0.24,187.0,44.7,,156.28409310382014
14.314,157.2,0.236,44.7,,,,,4.292,0.236,187.2,44.7,,156.29660748698444
14.335,157.3,0.234,44.6,,,,,4.313000000000001,0.234,187.3,44.6,,156.30171328219336
14.355,157.5,0.233,44.5,,,,,4.333,0.233,187.5,44.5,,156.30376795295243
14.376,157.6,0.23,44.5,,,,,4.353999999999999,0.23,187.6,44.5,,156.3124168784335
14.395,157.8,0.229,44.6,,,,,4.372999999999999,0.229,187.8,44.6,,156.3160926315695
14.415,158.0,0.227,44.6,,,,,4.392999999999999,0.227,188.0,44.6,,156.32157543110497
