time,length,pressure,force,time_contraction,pressure_contraction,length_contraction,force_contraction,time_extension,pressure_extension,length_extension,force_extension,estimated_contraction_length,estimated_extension_length
10.028,222.4,0.422,46.0,0.0,0.422,222.4,46.0,,,,,220.27922925166595,
10.048,222.4,0.423,47.0,0.019999999999999574,0.423,222.4,47.0,,,,,220.31811667636057,
10.065,222.4,0.424,47.4,0.036999999999999034,0.424,222.4,47.4,,,,,220.30751574924565,
10.086,222.3,0.427,48.0,0.05799999999999983,0.427,222.3,48.0,,,,,220.22587058956395,
10.106,222.2,0.431,48.4,0.0779999999999994,0.431,222.2,48.4,,,,,220.08271707239703,
10.127,222.1,0.433,49.3,0.0990000000000002,0.433,222.1,49.3,,,,,220.06971839071426,
10.146,221.8,0.435,49.4,0.11800000000000033,0.435,221.8,49.4,,,,,219.98908275062942,
10.167,221.6,0.438,49.3,0.13899999999999935,0.438,221.6,49.3,,,,,219.8459821566451,
10.188,221.3,0.442,49.3,0.16000000000000014,0.442,221.3,49.3,,,,,219.66470788929226,
10.208,221.0,0.445,49.1,0.17999999999999972,0.445,221.0,49.1,,,,,219.51003040216574,
10.229,220.8,0.446,48.9,0.20099999999999874,0.446,220.8,48.9,,,,,219.4465326101217,
10.245,220.6,0.451,48.7,0.21699999999999875,0.451,220.6,48.7,,,,,219.19645750173476,
10.266,220.4,0.455,48.7,0.23799999999999955,0.455,220.4,48.7,,,,,219.00806802393163,
10.287,220.3,0.456,49.1,0.25900000000000034,0.456,220.3,49.1,,,,,218.9963917703318,
10.31,220.0,0.462,49.6,0.28200000000000003,0.462,220.0,49.6,,,,,218.75502740843163,
10.328,219.8,0.464,49.7,0.29999999999999893,0.464,219.8,49.7,,,,,218.66777161850032,
10.348,219.5,0.468,49.6,0.3200000000000003,0.468,219.5,49.6,,,,,218.46445697421603,
10.368,219.2,0.472,49.5,0.33999999999999986,0.472,219.2,49.5,,,,,218.25893820055734,
10.385,218.9,0.476,49.3,0.3569999999999993,0.476,218.9,49.3,,,,,218.04186045329294,
10.402,218.7,0.479,49.3,0.3739999999999988,0.479,218.7,49.3,,,,,217.89162175216876,
10.426,218.5,0.484,49.2,0.3979999999999997,0.484,218.5,49.2,,,,,217.62915710333448,
10.441,218.2,0.489,49.2,0.41300000000000026,0.489,218.2,49.2,,,,,217.3729391324319,
10.463,218.0,0.493,49.7,0.4349999999999987,0.493,218.0,49.7,,,,,217.21426323662416,
10.488,217.7,0.497,49.8,0.4599999999999991,0.497,217.7,49.8,,,,,217.0151972443941,
10.508,217.5,0.5,49.8,0.47999999999999865,0.5,217.5,49.8,,,,,216.85728086928393,
10.528,217.2,0.504,49.7,0.5,0.504,217.2,49.7,,,,,216.6350012698929,
10.544,217.0,0.51,49.5,0.516,0.51,217.0,49.5,,,,,216.29240958907192,
10.565,216.7,0.515,49.6,0.536999999999999,0.515,216.7,49.6,,,,,216.03019321944564,
10.585,216.4,0.52,50.2,0.5570000000000004,0.52,216.4,50.2,,,,,215.81644425211002,
10.606,216.1,0.523,50.3,0.5779999999999994,0.523,216.1,50.3,,,,,215.6603692661041,
10.626,215.9,0.527,50.0,0.597999999999999,0.527,215.9,50.0,,,,,215.4054874645628,
10.646,215.6,0.532,49.5,0.6180000000000003,0.532,215.6,49.5,,,,,215.07009942095172,
10.668,215.4,0.537,49.3,0.6399999999999988,0.537,215.4,49.3,,,,,214.76241461418311,
10.687,215.2,0.544,49.6,0.6589999999999989,0.544,215.2,49.6,,,,,214.38829076393557,
10.708,215.0,0.547,50.2,0.6799999999999997,0.547,215.0,50.2,,,,,214.2775294767567,
10.725,214.7,0.552,50.4,0.6969999999999992,0.552,214.7,50.4,,,,,214.00431720612872,
10.745,214.5,0.555,50.2,0.7169999999999987,0.555,214.5,50.2,,,,,213.80378032774533,
10.765,214.2,0.56,50.3,0.7370000000000001,0.56,214.2,50.3,,,,,213.51469721617417,
10.786,213.9,0.566,49.8,0.7579999999999991,0.566,213.9,49.8,,,,,213.0940326845227,
10.806,213.7,0.571,49.5,0.7779999999999987,0.571,213.7,49.5,,,,,212.75225792374823,
10.827,213.5,0.577,49.7,0.7989999999999995,0.577,213.5,49.7,,,,,212.40154884133693,
10.847,213.3,0.582,50.0,0.8189999999999991,0.582,213.3,50.0,,,,,212.1216696841273,
10.862,213.1,0.586,50.4,0.8339999999999996,0.586,213.1,50.4,,,,,211.91463812165864,
10.879,212.9,0.591,50.4,0.8509999999999991,0.591,212.9,50.4,,,,,211.59495377341418,
10.906,212.7,0.596,50.0,0.8780000000000001,0.596,212.7,50.0,,,,,211.2244671119449,
10.927,212.5,0.6,50.0,0.8989999999999991,0.6,212.5,50.0,,,,,210.96355295969772,
10.946,212.3,0.604,50.3,0.9179999999999993,0.604,212.3,50.3,,,,,210.73684448119678,
10.966,212.1,0.609,50.2,0.9379999999999988,0.609,212.1,50.2,,,,,210.39344252284837,
10.987,211.8,0.615,50.0,0.9589999999999996,0.615,211.8,50.0,,,,,209.96703308799874,
11.006,211.6,0.621,49.9,0.9779999999999998,0.621,211.6,49.9,,,,,209.5479807220343,
11.024,211.4,0.625,50.1,0.9959999999999987,0.625,211.4,50.1,,,,,209.29934631892885,
11.044,211.2,0.629,50.1,1.016,0.629,211.2,50.1,,,,,209.0237903544146,
11.064,211.1,0.635,50.1,1.0359999999999996,0.635,211.1,50.1,,,,,208.60664760748065,
11.085,210.9,0.64,50.2,1.0570000000000004,0.64,210.9,50.2,,,,,208.26838619808385,
11.106,210.7,0.644,50.0,1.0779999999999994,0.644,210.7,50.0,,,,,207.95942751925722,
11.126,210.5,0.648,50.1,1.097999999999999,0.648,210.5,50.1,,,,,207.687158761788,
11.144,210.4,0.654,50.1,1.1159999999999997,0.654,210.4,50.1,,,,,207.2555425742364,
11.157,210.2,0.658,50.1,1.1289999999999996,0.658,210.2,50.1,,,,,206.9652592490936,
11.185,210.1,0.66,50.2,1.157,0.66,210.1,50.2,,,,,206.8326325148273,
11.205,209.9,0.668,50.1,1.1769999999999996,0.668,209.9,50.1,,,,,206.2306637358574,
11.224,209.8,0.671,50.2,1.1959999999999997,0.671,209.8,50.2,,,,,206.02132130811242,
11.245,209.6,0.676,50.6,1.2169999999999987,0.676,209.6,50.6,,,,,205.70192388814593,
11.265,209.4,0.679,50.5,1.237,0.679,209.4,50.5,,,,,205.46266692749992,
11.286,209.3,0.684,50.2,1.2579999999999991,0.684,209.3,50.2,,,,,205.04269321205868,
11.306,209.1,0.69,50.0,1.2779999999999987,0.69,209.1,50.0,,,,,204.55594371121737,
11.322,209.0,0.692,50.0,1.2939999999999987,0.692,209.0,50.0,,,,,204.401872074086,
11.347,208.9,0.697,50.1,1.318999999999999,0.697,208.9,50.1,,,,,204.02854086440843,
11.364,208.8,0.699,50.1,1.3360000000000003,0.699,208.8,50.1,,,,,203.87273456138192,
11.384,208.7,0.703,50.1,1.3559999999999999,0.703,208.7,50.1,,,,,203.55959843526387,
11.404,208.6,0.707,50.2,1.3759999999999994,0.707,208.6,50.2,,,,,203.2587128306435,
11.425,208.5,0.71,50.3,1.3970000000000002,0.71,208.5,50.3,,,,,203.03541266749465,
11.446,208.3,0.715,50.4,1.4179999999999993,0.715,208.3,50.4,,,,,202.65135581361656,
11.466,208.2,0.719,50.5,1.4379999999999988,0.719,208.2,50.5,,,,,202.34488440120995,
11.486,208.1,0.72,50.2,1.4580000000000002,0.72,208.1,50.2,,,,,202.22066745205402,
11.503,208.0,0.724,50.0,1.4749999999999996,0.724,208.0,50.0,,,,,201.8676596370365,
11.52,207.9,0.728,49.8,1.491999999999999,0.728,207.9,49.8,,,,,201.51227157822697,
11.544,207.8,0.73,50.0,1.516,0.73,207.8,50.0,,,,,201.37802136447203,
11.565,207.8,0.734,50.2,1.536999999999999,0.734,207.8,50.2,,,,,201.0787769879336,
11.583,207.7,0.735,50.3,1.5549999999999997,0.735,207.7,50.3,,,,,201.0111402308624,
11.606,207.6,0.737,50.3,1.5779999999999994,0.737,207.6,50.3,,,,,200.84577051578552,
11.626,207.6,0.739,50.2,1.597999999999999,0.739,207.6,50.2,,,,,200.6649283647761,
11.646,207.5,0.742,50.1,1.6180000000000003,0.742,207.5,50.1,,,,,200.4000652410697,
11.663,207.5,0.743,50.1,1.6349999999999998,0.743,207.5,50.1,,,,,200.31651236931535,
11.683,207.5,0.743,50.1,1.6549999999999994,0.743,207.5,50.1,,,,,200.31651236931535,
11.704,207.4,0.746,50.2,1.6760000000000002,0.746,207.4,50.2,,,,,200.08020797212802,
11.725,207.4,0.746,50.3,1.6969999999999992,0.746,207.4,50.3,,,,,200.0953222776714,
11.745,207.4,0.746,50.3,1.7169999999999987,0.746,207.4,50.3,,,,,200.0953222776714,
11.765,207.4,0.747,50.2,1.737,0.747,207.4,50.2,,,,,199.99616864744235,
11.785,207.3,0.747,50.2,1.7569999999999997,0.747,207.3,50.2,,,,,199.99616864744235,
11.806,207.3,0.748,50.1,1.7779999999999987,0.748,207.3,50.1,,,,,199.89684361046224,
11.823,207.3,0.747,50.0,,,,,1.795,0.747,207.3,50.0,,198.41128571227966
11.843,207.3,0.747,50.0,,,,,1.8149999999999995,0.747,207.3,50.0,,198.41128571227966
11.863,207.3,0.747,50.0,,,,,1.834999999999999,0.747,207.3,50.0,,198.41128571227966
11.884,207.3,0.747,50.0,,,,,1.8559999999999999,0.747,207.3,50.0,,198.41128571227966
11.905,207.3,0.747,50.0,,,,,1.876999999999999,0.747,207.3,50.0,,198.41128571227966
11.924,207.3,0.747,50.0,,,,,1.895999999999999,0.747,207.3,50.0,,198.41128571227966
11.94,207.3,0.747,50.0,,,,,1.911999999999999,0.747,207.3,50.0,,198.41128571227966
11.963,207.3,0.747,50.0,,,,,1.9349999999999987,0.747,207.3,50.0,,198.41128571227966
11.979,207.3,0.747,50.0,,,,,1.9509999999999987,0.747,207.3,50.0,,198.41128571227966
11.998,207.3,0.747,50.0,,,,,1.9699999999999989,0.747,207.3,50.0,,198.41128571227966
12.019,207.3,0.748,49.9,,,,,1.9909999999999997,0.748,207.3,49.9,,198.30907351103426
12.044,207.3,0.747,50.0,,,,,2.016,0.747,207.3,50.0,,198.41128571227966
12.064,207.3,0.747,50.0,,,,,2.0359999999999996,0.747,207.3,50.0,,198.41128571227966
12.084,207.3,0.747,49.9,,,,,2.055999999999999,0.747,207.3,49.9,,198.39858536813858
12.104,207.3,0.747,49.9,,,,,2.0759999999999987,0.747,207.3,49.9,,198.39858536813858
12.121,207.3,0.748,49.9,,,,,2.093,0.748,207.3,49.9,,198.30907351103426
12.142,207.3,0.747,49.9,,,,,2.113999999999999,0.747,207.3,49.9,,198.39858536813858
12.162,207.3,0.747,49.9,,,,,2.1340000000000003,0.747,207.3,49.9,,198.39858536813858
12.182,207.3,0.747,49.9,,,,,2.154,0.747,207.3,49.9,,198.39858536813858
12.203,207.3,0.747,49.9,,,,,2.174999999999999,0.747,207.3,49.9,,198.39858536813858
12.224,207.3,0.747,49.9,,,,,2.1959999999999997,0.747,207.3,49.9,,198.39858536813858
12.245,207.3,0.747,49.9,,,,,2.2169999999999987,0.747,207.3,49.9,,198.39858536813858
12.265,207.3,0.747,49.9,,,,,2.237,0.747,207.3,49.9,,198.39858536813858
12.281,207.3,0.747,49.9,,,,,2.253,0.747,207.3,49.9,,198.39858536813858
12.302,207.3,0.747,49.9,,,,,2.273999999999999,0.747,207.3,49.9,,198.39858536813858
12.322,207.3,0.747,49.9,,,,,2.2939999999999987,0.747,207.3,49.9,,198.39858536813858
12.343,207.3,0.747,49.9,,,,,2.3149999999999995,0.747,207.3,49.9,,198.39858536813858
12.363,207.3,0.747,49.9,,,,,2.334999999999999,0.747,207.3,49.9,,198.39858536813858
12.384,207.3,0.747,49.9,,,,,2.356,0.747,207.3,49.9,,198.39858536813858
12.403,207.3,0.747,49.9,,,,,2.375,0.747,207.3,49.9,,198.39858536813858
12.424,207.3,0.747,49.9,,,,,2.395999999999999,0.747,207.3,49.9,,198.39858536813858
12.445,207.3,0.747,49.9,,,,,2.417,0.747,207.3,49.9,,198.39858536813858
12.461,207.3,0.747,49.9,,,,,2.433,0.747,207.3,49.9,,198.39858536813858
12.481,207.3,0.747,49.9,,,,,2.4529999999999994,0.747,207.3,49.9,,198.39858536813858
12.502,207.3,0.746,49.9,,,,,2.474,0.746,207.3,49.9,,198.48796630212672
12.523,207.3,0.747,49.9,,,,,2.494999999999999,0.747,207.3,49.9,,198.39858536813858
12.543,207.3,0.747,49.9,,,,,2.514999999999999,0.747,207.3,49.9,,198.39858536813858
12.564,207.3,0.746,49.9,,,,,2.5359999999999996,0.746,207.3,49.9,,198.48796630212672
12.584,207.3,0.746,49.9,,,,,2.555999999999999,0.746,207.3,49.9,,198.48796630212672
12.601,207.3,0.746,49.8,,,,,2.5730000000000004,0.746,207.3,49.8,,198.47528308959255
12.622,207.3,0.746,49.8,,,,,2.5939999999999994,0.746,207.3,49.8,,198.47528308959255
12.642,207.3,0.746,49.8,,,,,2.613999999999999,0.746,207.3,49.8,,198.47528308959255
12.662,207.3,0.746,49.7,,,,,2.6340000000000003,0.746,207.3,49.7,,198.46260026884124
12.683,207.3,0.745,49.7,,,,,2.6549999999999994,0.745,207.3,49.7,,198.55188375936146
12.703,207.3,0.745,49.6,,,,,2.674999999999999,0.745,207.3,49.6,,198.53921807021706
12.723,207.3,0.745,49.5,,,,,2.6950000000000003,0.745,207.3,49.5,,198.5265527728555
12.744,207.3,0.742,49.4,,,,,2.7159999999999993,0.742,207.3,49.4,,198.78110345855748
12.764,207.3,0.742,49.3,,,,,2.735999999999999,0.742,207.3,49.3,,198.76848916423393
12.781,207.3,0.74,49.2,,,,,2.753,0.74,207.3,49.2,,198.9334313329293
12.801,207.3,0.739,48.9,,,,,2.7729999999999997,0.739,207.3,48.9,,198.98432428536498
12.822,207.3,0.737,48.7,,,,,2.7939999999999987,0.737,207.3,48.7,,199.13613837605394
12.842,207.3,0.735,48.4,,,,,2.814,0.735,207.3,48.4,,199.27507067049322
12.863,207.3,0.732,48.1,,,,,2.834999999999999,0.732,207.3,48.1,,199.5015330035986
12.883,207.3,0.731,47.7,,,,,2.8549999999999986,0.731,207.3,47.7,,199.53955350604937
12.904,207.3,0.728,47.3,,,,,2.8759999999999994,0.728,207.3,47.3,,199.75263330226667
12.92,207.4,0.724,46.9,,,,,2.8919999999999995,0.724,207.4,46.9,,200.05194563489852
12.941,207.4,0.721,46.5,,,,,2.9130000000000003,0.721,207.4,46.5,,200.2631590535809
12.961,207.4,0.72,46.3,,,,,2.933,0.72,207.4,46.3,,200.3252362193696
12.981,207.5,0.717,46.1,,,,,2.9529999999999994,0.717,207.5,46.1,,200.5598224654576
13.002,207.6,0.714,46.0,,,,,2.974,0.714,207.6,46.0,,200.80556510715286
13.022,207.6,0.713,45.9,,,,,2.9939999999999998,0.713,207.6,45.9,,200.87916291264003
13.043,207.7,0.707,45.8,,,,,3.014999999999999,0.707,207.7,45.8,,201.37877922383564
13.063,207.8,0.704,45.7,,,,,3.035,0.704,207.8,45.7,,201.62091340405243
13.083,207.9,0.701,45.4,,,,,3.0549999999999997,0.701,207.9,45.4,,201.83814435115966
13.1,208.0,0.695,45.3,,,,,3.071999999999999,0.695,208.0,45.3,,202.32903922951783
13.121,208.2,0.691,45.3,,,,,3.093,0.691,208.2,45.3,,202.66162554624742
13.141,208.3,0.687,45.2,,,,,3.1129999999999995,0.687,208.3,45.2,,202.9804395522172
13.161,208.5,0.682,45.4,,,,,3.132999999999999,0.682,208.5,45.4,,203.41387999015575
13.182,208.6,0.676,45.4,,,,,3.154,0.676,208.6,45.4,,203.90166148454645
13.203,208.8,0.673,45.3,,,,,3.174999999999999,0.673,208.8,45.3,,204.13234119452738
13.219,208.9,0.669,45.1,,,,,3.190999999999999,0.669,208.9,45.1,,204.43065422068275
13.24,209.0,0.664,45.1,,,,,3.2119999999999997,0.664,209.0,45.1,,204.82920720194244
13.261,209.2,0.658,44.9,,,,,3.2329999999999988,0.658,209.2,44.9,,205.28076810353167
13.281,209.4,0.653,44.7,,,,,3.253,0.653,209.4,44.7,,205.65007446392684
13.302,209.6,0.646,44.6,,,,,3.273999999999999,0.646,209.6,44.6,,206.1819486445259
13.312,209.8,0.642,44.7,,,,,3.283999999999999,0.642,209.8,44.7,,206.50026464367858
13.339,210.0,0.638,44.7,,,,,3.311,0.638,210.0,44.7,,206.8054970155575
13.363,210.2,0.633,45.0,,,,,3.334999999999999,0.633,210.2,45.0,,207.21640778009288
13.378,210.3,0.629,45.2,,,,,3.3499999999999996,0.629,210.3,45.2,,207.53813812875484
13.399,210.4,0.624,45.1,,,,,3.3709999999999987,0.624,210.4,45.1,,207.89980024746015
13.42,210.6,0.619,44.7,,,,,3.3919999999999995,0.619,210.6,44.7,,208.22674408109762
13.44,210.8,0.613,44.3,,,,,3.411999999999999,0.613,210.8,44.3,,208.62399628800833
13.46,211.0,0.607,44.1,,,,,3.4320000000000004,0.607,211.0,44.1,,209.03801195819113
13.482,211.3,0.603,44.0,,,,,3.453999999999999,0.603,211.3,44.0,,209.31505015530362
13.502,211.5,0.598,44.4,,,,,3.474,0.598,211.5,44.4,,209.71205352988832
13.521,211.7,0.592,44.8,,,,,3.4930000000000003,0.592,211.7,44.8,,210.17519300725587
13.542,211.9,0.588,44.9,,,,,3.5139999999999993,0.588,211.9,44.9,,210.46419252778406
13.563,212.0,0.583,44.8,,,,,3.535,0.583,212.0,44.8,,210.79995401317242
13.58,212.2,0.576,44.5,,,,,3.5519999999999996,0.576,212.2,44.5,,211.24909633631205
13.6,212.4,0.574,43.9,,,,,3.571999999999999,0.574,212.4,43.9,,211.32606851411384
13.62,212.6,0.57,43.7,,,,,3.5919999999999987,0.57,212.6,43.7,,211.5767988715097
13.641,212.9,0.564,43.9,,,,,3.6129999999999995,0.564,212.9,43.9,,211.99753321725507
13.661,213.1,0.559,44.2,,,,,3.632999999999999,0.559,213.1,44.2,,212.35694637802624
13.671,213.4,0.555,44.1,,,,,3.642999999999999,0.555,213.4,44.1,,212.6095834973113
13.698,213.6,0.549,44.3,,,,,3.67,0.549,213.6,44.3,,213.0176339463605
13.709,213.8,0.544,44.6,,,,,3.680999999999999,0.544,213.8,44.6,,213.36614448624405
13.741,214.0,0.541,44.4,,,,,3.712999999999999,0.541,214.0,44.4,,213.53836279672865
13.758,214.3,0.536,43.9,,,,,3.7299999999999986,0.536,214.3,43.9,,213.80798328824397
13.776,214.5,0.531,44.1,,,,,3.7479999999999993,0.531,214.5,44.1,,214.13859924879736
13.799,214.7,0.526,44.2,,,,,3.770999999999999,0.526,214.7,44.2,,214.45663039070652
13.821,214.9,0.522,44.1,,,,,3.7929999999999993,0.522,214.9,44.1,,214.69253807285227
13.842,215.2,0.517,44.2,,,,,3.814,0.517,215.2,44.2,,215.0045270161163
13.859,215.4,0.514,44.1,,,,,3.8309999999999995,0.514,215.4,44.1,,215.17602536677876
13.879,215.6,0.51,44.1,,,,,3.850999999999999,0.51,215.6,44.1,,215.41462685895374
13.887,215.9,0.505,44.2,,,,,3.859,0.505,215.9,44.2,,215.7185595373576
13.921,216.1,0.501,44.2,,,,,3.892999999999999,0.501,216.1,44.2,,215.9523808380537
13.941,216.3,0.498,44.2,,,,,3.9130000000000003,0.498,216.3,44.2,,216.1263721208559
13.956,216.5,0.493,44.2,,,,,3.927999999999999,0.493,216.5,44.2,,216.41373912986936
13.982,216.8,0.488,44.1,,,,,3.953999999999999,0.488,216.8,44.1,,216.68949105468937
14.002,217.0,0.486,43.9,,,,,3.974,0.486,217.0,43.9,,216.78562976703495
14.021,217.3,0.482,43.8,,,,,3.9930000000000003,0.482,217.3,43.8,,217.00146139679526
14.038,217.5,0.479,44.1,,,,,4.01,0.479,217.5,44.1,,217.1927626327835
14.059,217.7,0.475,44.4,,,,,4.030999999999999,0.475,217.7,44.4,,217.43740922976824
14.079,218.0,0.47,44.1,,,,,4.051,0.47,218.0,44.1,,217.68542943846728
14.097,218.2,0.468,44.0,,,,,4.068999999999999,0.468,218.2,44.0,,217.78546397853984
14.118,218.4,0.465,44.2,,,,,4.09,0.465,218.4,44.2,,217.96250790067063
14.133,218.5,0.462,44.2,,,,,4.104999999999999,0.462,218.5,44.2,,218.12235948692563
14.161,218.7,0.457,44.2,,,,,4.132999999999999,0.457,218.7,44.2,,218.3861603350271
14.162,218.9,0.455,43.8,,,,,4.134,0.455,218.9,43.8,,218.45960819477992
14.194,219.2,0.451,43.6,,,,,4.166,0.451,219.2,43.6,,218.65207096987913
14.219,219.4,0.449,43.8,,,,,4.190999999999999,0.449,219.4,43.8,,218.7706794280527
14.239,219.6,0.446,44.1,,,,,4.211,0.446,219.6,44.1,,218.947362032951
14.259,219.8,0.443,44.2,,,,,4.231,0.443,219.8,44.2,,219.10738993525962
14.28,220.0,0.44,44.2,,,,,4.251999999999999,0.44,220.0,44.2,,219.25860059584693
14.298,220.2,0.439,44.1,,,,,4.27,0.439,220.2,44.1,,219.30122054823678
14.313,220.3,0.437,44.1,,,,,4.285,0.437,220.3,44.1,,219.40114467312998
14.329,220.5,0.434,44.2,,,,,4.301,0.434,220.5,44.2,,219.55748699288472
14.349,220.6,0.432,44.1,,,,,4.321,0.432,220.6,44.1,,219.6486638308299
14.377,220.8,0.431,43.6,,,,,4.349,0.431,220.8,43.6,,219.66084158819433
14.393,221.0,0.429,43.5,,,,,4.365,0.429,221.0,43.5,,219.75148633550126
14.418,221.2,0.427,44.0,,,,,4.389999999999999,0.427,221.2,44.0,,219.8855894253908
