time,length,pressure,force,time_contraction,pressure_contraction,length_contraction,force_contraction,time_extension,pressure_extension,length_extension,force_extension,estimated_contraction_length,estimated_extension_length
10.004,195.7,0.42,93.9,0.0,0.42,229.7,93.9,,,,,189.59017750464412,
10.015,195.7,0.42,93.8,0.011000000000001009,0.42,229.7,93.8,,,,,189.58723168170394,
10.024,195.7,0.42,94.0,0.019999999999999574,0.42,229.7,94.0,,,,,189.5931226935863,
10.032,195.8,0.42,94.1,0.02800000000000047,0.42,229.8,94.1,,,,,189.59606726034013,
10.054,195.8,0.418,94.3,0.05000000000000071,0.418,229.8,94.3,,,,,189.62841644735985,
10.064,195.8,0.42,94.2,0.0600000000000005,0.42,229.8,94.2,,,,,189.5990112167153,
10.079,195.8,0.42,94.3,0.07500000000000107,0.42,229.8,94.3,,,,,189.6019545745215,
10.091,195.8,0.42,94.5,0.08699999999999974,0.42,229.8,94.5,,,,,189.60783954166553,
10.103,195.8,0.42,94.7,0.0990000000000002,0.42,229.8,94.7,,,,,189.61372225624962,
10.115,195.8,0.422,94.9,0.11100000000000065,0.422,229.8,94.9,,,,,189.5929335365116,
10.127,195.8,0.422,95.0,0.12300000000000111,0.422,229.8,95.0,,,,,189.59590353448746,
10.135,195.8,0.422,95.2,0.13100000000000023,0.422,229.8,95.2,,,,,189.60184186249853,
10.152,195.8,0.422,95.3,0.1479999999999997,0.422,229.8,95.3,,,,,189.6048102161531,
10.161,195.7,0.423,95.5,0.15700000000000003,0.423,229.7,95.5,,,,,189.59735560948877,
10.177,195.7,0.423,95.7,0.17300000000000004,0.423,229.7,95.7,,,,,189.60331918581446,
10.182,195.7,0.426,95.9,0.17800000000000082,0.426,229.7,95.9,,,,,189.56870588981178,
10.201,195.7,0.427,96.2,0.19700000000000095,0.427,229.7,96.2,,,,,189.56410628951767,
10.208,195.7,0.431,96.8,0.20400000000000063,0.431,229.7,96.8,,,,,189.52701146054457,
10.215,195.7,0.432,98.0,0.2110000000000003,0.432,229.7,98.0,,,,,189.5502664112496,
10.234,195.7,0.434,99.2,0.23000000000000043,0.434,229.7,99.2,,,,,189.5598153395223,
10.247,195.6,0.437,100.6,0.24300000000000033,0.437,229.6,100.6,,,,,189.56197330293256,
10.257,195.6,0.44,101.7,0.2530000000000001,0.44,229.6,101.7,,,,,189.55480608546523,
10.271,195.5,0.443,102.4,0.26700000000000124,0.443,229.5,102.4,,,,,189.5346730190669,
10.283,195.3,0.443,102.8,0.2789999999999999,0.443,229.3,102.8,,,,,189.54771554060997,
10.295,195.1,0.445,103.5,0.29100000000000037,0.445,229.1,103.5,,,,,189.54193595396288,
10.307,194.9,0.449,103.7,0.3030000000000008,0.449,228.9,103.7,,,,,189.49024000070702,
10.32,194.6,0.453,103.7,0.3160000000000007,0.453,228.6,103.7,,,,,189.43033752368194,
10.332,194.3,0.457,103.4,0.3280000000000012,0.457,228.3,103.4,,,,,189.35834041896106,
10.343,194.0,0.459,103.8,0.3390000000000004,0.459,228.0,103.8,,,,,189.34087722377834,
10.354,193.7,0.461,103.7,0.34999999999999964,0.461,227.7,103.7,,,,,189.3055300991695,
10.369,193.3,0.465,102.8,0.3650000000000002,0.465,227.3,102.8,,,,,189.2080244050895,
10.371,193.0,0.471,102.7,0.3670000000000009,0.471,227.0,102.7,,,,,189.10262162844407,
10.386,192.7,0.473,102.5,0.3819999999999997,0.473,226.7,102.5,,,,,189.0602681218822,
10.406,192.4,0.477,102.3,0.402000000000001,0.477,226.4,102.3,,,,,188.9814207837614,
10.409,192.2,0.482,102.0,0.40500000000000114,0.482,226.2,102.0,,,,,188.87784923106648,
10.426,191.9,0.486,102.4,0.4220000000000006,0.486,225.9,102.4,,,,,188.8181497534526,
10.428,191.7,0.489,103.4,0.42400000000000126,0.489,225.7,103.4,,,,,188.80095005759134,
10.444,191.4,0.493,103.6,0.4400000000000013,0.493,225.4,103.6,,,,,188.73119002207108,
10.464,191.1,0.497,103.1,0.46000000000000085,0.497,225.1,103.1,,,,,188.63027524509283,
10.485,190.8,0.501,103.3,0.48099999999999987,0.501,224.8,103.3,,,,,188.5566666828371,
10.508,190.5,0.506,103.1,0.5039999999999996,0.506,224.5,103.1,,,,,188.44244939601197,
10.529,190.2,0.51,103.8,0.5250000000000004,0.51,224.2,103.8,,,,,188.38708721907938,
10.548,189.9,0.515,103.8,0.5440000000000005,0.515,223.9,103.8,,,,,188.27642826859204,
10.567,189.5,0.519,104.0,0.5630000000000006,0.519,223.5,104.0,,,,,188.1948915194007,
10.578,189.2,0.523,103.5,0.5739999999999998,0.523,223.2,103.5,,,,,188.07816946763202,
10.611,188.9,0.528,103.1,0.6070000000000011,0.528,222.9,103.1,,,,,187.93887523156056,
10.626,188.6,0.533,103.2,0.6219999999999999,0.533,222.6,103.2,,,,,187.8202837146987,
10.641,188.3,0.538,103.1,0.6370000000000005,0.538,222.3,103.1,,,,,187.68812767353907,
10.667,188.0,0.543,103.3,0.6630000000000003,0.543,222.0,103.3,,,,,187.56795817076892,
10.689,187.7,0.545,103.5,0.6850000000000005,0.545,221.7,103.5,,,,,187.5253878328843,
10.699,187.4,0.552,103.5,0.6950000000000003,0.552,221.4,103.5,,,,,187.3349416659625,
10.73,187.1,0.559,103.6,0.7260000000000009,0.559,221.1,103.6,,,,,187.1428676744151,
10.75,186.8,0.566,103.8,0.7460000000000004,0.566,220.8,103.8,,,,,186.9495633897952,
10.77,186.5,0.569,104.3,0.766,0.569,220.5,104.3,,,,,186.88915656544094,
10.777,186.2,0.57,103.7,0.7729999999999997,0.57,220.2,103.7,,,,,186.8232695385934,
10.803,185.9,0.575,103.6,0.7990000000000013,0.575,219.9,103.6,,,,,186.66307810220235,
10.826,185.7,0.583,103.3,0.822000000000001,0.583,219.7,103.3,,,,,186.38898874897944,
10.844,185.4,0.588,103.4,0.8399999999999999,0.588,219.4,103.4,,,,,186.2303388594172,
10.861,185.1,0.593,103.3,0.8570000000000011,0.593,219.1,103.3,,,,,186.05457208130244,
10.877,184.9,0.598,103.6,0.8730000000000011,0.598,218.9,103.6,,,,,185.90145256467503,
10.91,184.7,0.6,103.9,0.9060000000000006,0.6,218.7,103.9,,,,,185.85155503636548,
10.93,184.4,0.605,104.1,0.9260000000000002,0.605,218.4,104.1,,,,,185.68698689788897,
10.947,184.2,0.614,104.0,0.9429999999999996,0.614,218.2,104.0,,,,,185.34804982327117,
10.967,183.9,0.618,104.5,0.963000000000001,0.618,217.9,104.5,,,,,185.23280072114778,
10.983,183.7,0.621,104.6,0.979000000000001,0.621,217.7,104.6,,,,,185.12478242971275,
10.999,183.4,0.626,104.3,0.995000000000001,0.626,217.4,104.3,,,,,184.90602622948546,
11.02,183.1,0.631,104.0,1.016,0.631,217.1,104.0,,,,,184.68168799571959,
11.049,182.9,0.637,103.5,1.045,0.637,216.9,103.5,,,,,184.3937404479605,
11.069,182.7,0.642,103.4,1.0650000000000013,0.642,216.7,103.4,,,,,184.1730186538782,
11.083,182.5,0.647,103.5,1.0790000000000006,0.647,216.5,103.5,,,,,183.96398701705553,
11.102,182.3,0.652,104.0,1.0980000000000008,0.652,216.3,104.0,,,,,183.78470250212612,
11.126,182.1,0.657,104.2,1.1219999999999999,0.657,216.1,104.2,,,,,183.57610792804059,
11.148,181.8,0.662,104.2,1.1440000000000001,0.662,215.8,104.2,,,,,183.34554380875528,
11.167,181.6,0.668,104.2,1.1630000000000003,0.668,215.6,104.2,,,,,183.06231575840658,
11.185,181.4,0.671,104.2,1.181000000000001,0.671,215.4,104.2,,,,,182.91799302253688,
11.202,181.1,0.676,104.1,1.1980000000000004,0.676,215.1,104.1,,,,,182.66398621245725,
11.227,180.9,0.68,103.8,1.2230000000000008,0.68,214.9,103.8,,,,,182.43573752300065,
11.25,180.7,0.684,103.4,1.2460000000000004,0.684,214.7,103.4,,,,,182.19342543053813,
11.266,180.6,0.69,103.0,1.2620000000000005,0.69,214.6,103.0,,,,,181.84120527779288,
11.284,180.4,0.693,103.3,1.2800000000000011,0.693,214.4,103.3,,,,,181.71223909890884,
11.298,180.3,0.698,103.9,1.2940000000000005,0.698,214.3,103.9,,,,,181.50477200887082,
11.319,180.1,0.702,104.0,1.3150000000000013,0.702,214.1,104.0,,,,,181.29683982845884,
11.348,180.0,0.708,104.1,1.3440000000000012,0.708,214.0,104.1,,,,,180.97368454811226,
11.368,179.8,0.71,104.2,1.3640000000000008,0.71,213.8,104.2,,,,,180.8714968504903,
11.389,179.6,0.714,104.1,1.3849999999999998,0.714,213.6,104.1,,,,,180.63218822610133,
11.404,179.5,0.718,104.1,1.4000000000000004,0.718,213.5,104.1,,,,,180.4000867942293,
11.426,179.3,0.723,103.7,1.4220000000000006,0.723,213.3,103.7,,,,,180.05960718776365,
11.441,179.2,0.726,103.6,1.4370000000000012,0.726,213.2,103.6,,,,,179.867803475453,
11.467,179.0,0.731,103.8,1.463000000000001,0.731,213.0,103.8,,,,,179.58585098940205,
11.484,178.9,0.734,103.9,1.4800000000000004,0.734,212.9,103.9,,,,,179.4119614982855,
11.5,178.7,0.737,104.0,1.4960000000000004,0.737,212.7,104.0,,,,,179.23624324733197,
11.525,178.6,0.739,103.5,1.5210000000000008,0.739,212.6,103.5,,,,,179.0498892254785,
11.548,178.5,0.745,103.5,1.5440000000000005,0.745,212.5,103.5,,,,,178.664404521288,
11.569,178.3,0.747,103.1,1.5650000000000013,0.747,212.3,103.1,,,,,178.48428923600528,
11.586,178.2,0.752,103.3,1.5820000000000007,0.752,212.2,103.3,,,,,178.1785845799925,
11.606,178.1,0.754,103.3,1.6020000000000003,0.754,212.1,103.3,,,,,178.04467102224055,
11.627,178.0,0.758,103.5,1.623000000000001,0.758,212.0,103.5,,,,,177.79980066015426,
11.633,177.9,0.762,103.7,1.6289999999999996,0.762,211.9,103.7,,,,,177.55175011847862,
11.665,177.8,0.764,103.8,1.6609999999999996,0.764,211.8,103.8,,,,,177.42652575137024,
11.68,177.7,0.768,103.7,1.6760000000000002,0.768,211.7,103.7,,,,,177.13360369112632,
11.706,177.6,0.77,103.6,1.702,0.77,211.6,103.6,,,,,176.97878197608463,
11.729,177.5,0.773,103.7,1.7249999999999996,0.773,211.5,103.7,,,,,176.7783552846178,
11.745,177.4,0.775,103.7,1.7409999999999997,0.775,211.4,103.7,,,,,176.63451295748,
11.765,177.3,0.776,103.5,1.761000000000001,0.776,211.3,103.5,,,,,176.53470016436125,
11.784,177.3,0.778,103.2,1.7800000000000011,0.778,211.3,103.2,,,,,176.3475271824162,
11.807,177.2,0.781,103.0,1.8030000000000008,0.781,211.2,103.0,,,,,176.09879763683605,
11.827,177.1,0.785,103.1,1.8230000000000004,0.785,211.1,103.1,,,,,175.81492298050765,
11.847,177.1,0.785,103.3,1.843,0.785,211.1,103.3,,,,,175.84338969359825,
11.865,177.0,0.787,103.4,1.8610000000000007,0.787,211.0,103.4,,,,,175.7074084775484,
11.883,177.0,0.787,103.3,1.8789999999999996,0.787,211.0,103.3,,,,,175.693091486869,
11.904,176.9,0.791,103.2,1.9000000000000004,0.791,210.9,103.2,,,,,175.3748922164401,
11.926,176.9,0.791,103.3,1.9220000000000006,0.791,210.9,103.3,,,,,175.38941669267584,
11.936,176.8,0.795,103.4,1.9320000000000004,0.795,210.8,103.4,,,,,175.09632687382575,
11.962,176.8,0.796,103.4,1.9580000000000002,0.796,210.8,103.4,,,,,175.01877747248267,
11.984,176.7,0.797,103.5,1.9800000000000004,0.797,210.7,103.5,,,,,174.95577178674438,
12.007,176.7,0.798,103.4,2.003,0.798,210.7,103.4,,,,,174.86289752262047,
12.028,176.6,0.8,103.2,2.024000000000001,0.8,210.6,103.2,,,,,174.6760328496559,
12.044,176.6,0.8,103.1,2.040000000000001,0.8,210.6,103.1,,,,,174.66104756425204,
12.065,176.6,0.8,103.1,2.061,0.8,210.6,103.1,,,,,174.66104756425204,
12.071,176.6,0.801,103.1,2.067,0.801,210.6,103.1,,,,,174.58204074316848,
12.103,176.5,0.802,103.3,2.099,0.802,210.5,103.3,,,,,174.53293407765148,
12.12,176.5,0.803,103.5,2.1159999999999997,0.803,210.5,103.5,,,,,174.48372642106034,
12.134,176.5,0.804,103.5,2.130000000000001,0.804,210.5,103.5,,,,,174.40413322655036,
12.167,176.5,0.803,103.4,,,,,2.1630000000000003,0.803,210.5,103.4,,172.02866016515827
12.187,176.5,0.803,103.3,,,,,2.183,0.803,210.5,103.3,,172.01380617697845
12.206,176.5,0.802,103.1,,,,,2.202,0.802,210.5,103.1,,172.0864049287428
12.225,176.5,0.803,103.1,,,,,2.221,0.803,210.5,103.1,,171.98406808428024
12.245,176.5,0.802,103.1,,,,,2.2409999999999997,0.802,210.5,103.1,,172.0864049287428
12.265,176.5,0.802,103.0,,,,,2.261000000000001,0.802,210.5,103.0,,172.0715707388229
12.286,176.5,0.803,102.9,,,,,2.282,0.803,210.5,102.9,,171.95428977043676
12.305,176.5,0.802,103.0,,,,,2.301,0.802,210.5,103.0,,172.0715707388229
12.324,176.5,0.802,103.0,,,,,2.3200000000000003,0.802,210.5,103.0,,172.0715707388229
12.34,176.5,0.8,102.8,,,,,2.3360000000000003,0.8,210.5,102.8,,172.24588857864734
12.36,176.5,0.8,102.6,,,,,2.356,0.8,210.5,102.6,,172.21634935317536
12.371,176.5,0.798,102.5,,,,,2.367000000000001,0.798,210.5,102.5,,172.40460660830567
12.404,176.5,0.798,102.2,,,,,2.4000000000000004,0.798,210.5,102.2,,172.36049105961987
12.42,176.5,0.796,101.9,,,,,2.4160000000000004,0.796,210.5,101.9,,172.5186531460048
12.445,176.5,0.795,101.6,,,,,2.4410000000000007,0.795,210.5,101.6,,172.57551248198473
12.466,176.5,0.793,101.4,,,,,2.4619999999999997,0.793,210.5,101.4,,172.7471924366701
12.486,176.5,0.792,101.1,,,,,2.482000000000001,0.792,210.5,101.1,,172.80364642683404
12.507,176.5,0.79,100.8,,,,,2.503,0.79,210.5,100.8,,172.95966442872322
12.52,176.5,0.79,100.4,,,,,2.516,0.79,210.5,100.4,,172.90172933093365
12.538,176.5,0.786,99.9,,,,,2.5340000000000007,0.786,210.5,99.9,,173.22640607514853
12.556,176.5,0.784,99.4,,,,,2.5519999999999996,0.784,210.5,99.4,,173.35176728028335
12.584,176.5,0.781,98.8,,,,,2.58,0.781,210.5,98.8,,173.56017840825368
12.604,176.5,0.779,98.3,,,,,2.5999999999999996,0.779,210.5,98.3,,173.68417225363154
12.618,176.5,0.778,97.8,,,,,2.6140000000000008,0.778,210.5,97.8,,173.7105745725445
12.644,176.5,0.774,97.3,,,,,2.6400000000000006,0.774,210.5,97.3,,174.02700048927994
12.666,176.6,0.773,96.8,,,,,2.662000000000001,0.773,210.6,96.8,,174.0530617899595
12.683,176.6,0.77,96.3,,,,,2.6790000000000003,0.77,210.6,96.3,,174.27063375852393
12.704,176.6,0.769,96.0,,,,,2.700000000000001,0.769,210.6,96.0,,174.3242671503067
12.721,176.7,0.764,95.7,,,,,2.7170000000000005,0.764,210.7,95.7,,174.75595695591142
12.739,176.7,0.764,95.4,,,,,2.735000000000001,0.764,210.7,95.4,,174.71481087791912
12.757,176.8,0.761,95.3,,,,,2.753,0.761,210.8,95.3,,174.98205777010554
12.772,176.8,0.759,95.1,,,,,2.7680000000000007,0.759,210.8,95.1,,175.14083390856808
12.805,176.9,0.756,95.0,,,,,2.801,0.756,210.9,95.0,,175.40415325748776
12.826,177.0,0.753,94.9,,,,,2.822000000000001,0.753,211.0,94.9,,175.66502404209427
12.847,177.1,0.751,94.8,,,,,2.843,0.751,211.1,94.8,,175.83319441286557
12.86,177.1,0.748,94.8,,,,,2.856,0.748,211.1,94.8,,176.10308621556305
12.884,177.2,0.745,94.7,,,,,2.880000000000001,0.745,211.2,94.7,,176.3573974450529
12.904,177.3,0.742,94.5,,,,,2.9000000000000004,0.742,211.3,94.5,,176.5965320826523
12.924,177.4,0.737,94.3,,,,,2.92,0.737,211.4,94.3,,177.00708984883823
12.945,177.5,0.735,94.0,,,,,2.9410000000000007,0.735,211.5,94.0,,177.14202516568406
12.965,177.6,0.731,93.8,,,,,2.9610000000000003,0.731,211.6,93.8,,177.45920089919062
12.986,177.7,0.728,93.7,,,,,2.982000000000001,0.728,211.7,93.7,,177.70058654427103
12.993,177.9,0.721,93.7,,,,,2.9890000000000008,0.721,211.9,93.7,,178.28250908394224
13.019,178.1,0.718,93.7,,,,,3.0150000000000006,0.718,212.1,93.7,,178.52760777846495
13.043,178.3,0.714,93.7,,,,,3.0389999999999997,0.714,212.3,93.7,,178.8504297318542
13.064,178.4,0.71,94.1,,,,,3.0600000000000005,0.71,212.4,94.1,,179.2143068979544
13.084,178.6,0.706,94.2,,,,,3.08,0.706,212.6,94.2,,179.53863930433687
13.105,178.7,0.702,94.2,,,,,3.101000000000001,0.702,212.7,94.2,,179.84716111918658
13.125,178.9,0.695,93.8,,,,,3.1210000000000004,0.695,212.9,93.8,,180.33352157057593
13.145,179.0,0.69,93.5,,,,,3.141,0.69,213.0,93.5,,180.6726015989227
13.161,179.2,0.685,93.5,,,,,3.157,0.685,213.2,93.5,,181.03724912999564
13.183,179.4,0.685,93.6,,,,,3.1790000000000003,0.685,213.4,93.6,,181.04761173490564
13.2,179.6,0.681,93.4,,,,,3.1959999999999997,0.681,213.6,93.4,,181.31394715587118
13.217,179.8,0.671,93.6,,,,,3.213000000000001,0.671,213.8,93.6,,182.03272047835083
13.243,180.0,0.663,93.6,,,,,3.2390000000000008,0.663,214.0,93.6,,182.57267874909917
13.265,180.2,0.66,93.8,,,,,3.261000000000001,0.66,214.2,93.8,,182.7896308830371
13.282,180.4,0.658,93.1,,,,,3.2780000000000005,0.658,214.4,93.1,,182.8553293115244
13.298,180.6,0.653,93.0,,,,,3.2940000000000005,0.653,214.6,93.0,,183.16998027689834
13.312,180.8,0.646,92.7,,,,,3.308,0.646,214.8,92.7,,183.5863791606618
13.343,181.0,0.64,93.1,,,,,3.3390000000000004,0.64,215.0,93.1,,183.99172935134516
13.363,181.2,0.636,93.3,,,,,3.359,0.636,215.2,93.3,,184.2503699786768
13.384,181.5,0.632,93.1,,,,,3.380000000000001,0.632,215.5,93.1,,184.47121333485202
13.404,181.7,0.629,92.7,,,,,3.4000000000000004,0.629,215.7,92.7,,184.61405885190754
13.422,181.9,0.624,93.0,,,,,3.418000000000001,0.624,215.9,93.0,,184.9272735591584
13.437,182.2,0.618,92.9,,,,,3.433,0.618,216.2,92.9,,185.25779708697976
13.456,182.4,0.611,92.8,,,,,3.452,0.611,216.4,92.8,,185.63460573159958
13.478,182.7,0.608,93.0,,,,,3.474,0.608,216.7,93.0,,185.8110293909009
13.502,182.9,0.604,93.4,,,,,3.498000000000001,0.604,216.9,93.4,,186.05219916092017
13.517,183.1,0.598,93.6,,,,,3.513,0.598,217.1,93.6,,186.37653553518103
13.543,183.3,0.592,93.6,,,,,3.5389999999999997,0.592,217.3,93.6,,186.67820529622605
13.564,183.6,0.588,93.2,,,,,3.5600000000000005,0.588,217.6,93.2,,186.84766023096563
13.584,183.8,0.583,92.8,,,,,3.58,0.583,217.8,92.8,,187.06260946420431
13.604,184.0,0.577,92.3,,,,,3.5999999999999996,0.577,218.0,92.3,,187.31371296305053
13.624,184.3,0.571,92.4,,,,,3.620000000000001,0.571,218.3,92.4,,187.5970463861679
13.629,184.6,0.569,92.2,,,,,3.625,0.569,218.6,92.2,,187.6750705330361
13.661,184.9,0.563,92.2,,,,,3.657,0.563,218.9,92.2,,187.94222813322847
13.681,185.2,0.559,92.7,,,,,3.6769999999999996,0.559,219.2,92.7,,188.14609821970757
13.697,185.5,0.554,93.0,,,,,3.6929999999999996,0.554,219.5,93.0,,188.37572200022444
13.716,185.8,0.549,93.1,,,,,3.7119999999999997,0.549,219.8,93.1,,188.58814401656866
13.744,186.0,0.545,93.4,,,,,3.74,0.545,220.0,93.4,,188.76649418671494
13.763,186.3,0.539,93.3,,,,,3.7590000000000003,0.539,220.3,93.3,,188.99741791895138
13.781,186.5,0.534,93.3,,,,,3.777000000000001,0.534,220.5,93.3,,189.18918782284024
13.802,186.8,0.531,93.3,,,,,3.798,0.531,220.8,93.3,,189.301977368215
13.822,187.0,0.525,92.8,,,,,3.8179999999999996,0.525,221.0,92.8,,189.49750940198507
13.842,187.3,0.521,92.5,,,,,3.838000000000001,0.521,221.3,92.5,,189.6266217310267
13.863,187.5,0.519,92.2,,,,,3.859,0.519,221.5,92.2,,189.68298629616478
13.877,187.8,0.515,92.5,,,,,3.873000000000001,0.515,221.8,92.5,,189.83738240745228
13.903,188.1,0.51,92.6,,,,,3.899000000000001,0.51,222.1,92.6,,190.0127000018299
13.924,188.4,0.505,92.8,,,,,3.92,0.505,222.4,92.8,,190.18784001298528
13.94,188.7,0.499,93.0,,,,,3.936,0.499,222.7,93.0,,190.38985603355923
13.959,189.0,0.495,92.8,,,,,3.955,0.495,223.0,92.8,,190.50658066191318
13.974,189.3,0.493,93.0,,,,,3.9700000000000006,0.493,223.3,93.0,,190.5767110629289
14.0,189.6,0.488,93.0,,,,,3.9960000000000004,0.488,223.6,93.0,,190.7277984877346
14.022,189.9,0.487,93.1,,,,,4.018000000000001,0.487,223.9,93.1,,190.7615903678656
14.043,190.2,0.483,93.5,,,,,4.039,0.483,224.2,93.5,,190.8946362725826
14.062,190.4,0.479,93.7,,,,,4.058,0.479,224.4,93.7,,191.0165829289613
14.083,190.6,0.475,93.5,,,,,4.079000000000001,0.475,224.6,93.5,,191.12044815831425
14.091,190.8,0.472,93.2,,,,,4.087,0.472,224.8,93.2,,191.19129428007048
14.117,191.1,0.47,92.9,,,,,4.113000000000001,0.47,225.1,92.9,,191.23423315615463
14.139,191.3,0.466,92.9,,,,,4.135,0.466,225.3,92.9,,191.34070717005287
14.156,191.5,0.462,92.9,,,,,4.152000000000001,0.462,225.5,92.9,,191.44471581490342
14.173,191.8,0.459,92.6,,,,,4.1690000000000005,0.459,225.8,92.6,,191.51067202905583
14.199,192.0,0.456,92.4,,,,,4.195,0.456,226.0,92.4,,191.57904492678927
14.216,192.3,0.454,92.5,,,,,4.212,0.454,226.3,92.5,,191.631924717065
14.243,192.6,0.45,92.7,,,,,4.239000000000001,0.45,226.6,92.7,,191.73566865803477
14.264,192.9,0.448,93.3,,,,,4.26,0.448,226.9,93.3,,191.8028598653405
14.276,193.1,0.445,93.8,,,,,4.272,0.445,227.1,93.8,,191.88882926415272
14.294,193.3,0.444,93.7,,,,,4.290000000000001,0.444,227.3,93.7,,191.9086042366016
14.313,193.5,0.442,93.8,,,,,4.309000000000001,0.442,227.5,93.8,,191.95725321106877
14.342,193.6,0.438,93.7,,,,,4.338000000000001,0.438,227.6,93.7,,192.04345056406675
14.361,193.8,0.437,93.3,,,,,4.357000000000001,0.437,227.8,93.3,,192.0532246827508
14.382,194.0,0.434,93.2,,,,,4.378,0.434,228.0,93.2,,192.11556104346423
14.389,194.1,0.433,93.6,,,,,4.385,0.433,228.1,93.6,,192.14902097431565
14.416,194.3,0.432,93.4,,,,,4.412000000000001,0.432,228.3,93.4,,192.16440718717172
