time,length,pressure,force,time_contraction,pressure_contraction,length_contraction,force_contraction,time_extension,pressure_extension,length_extension,force_extension,estimated_contraction_length,estimated_extension_length
10.011,221.2,0.418,45.1,0.0,0.418,221.2,45.1,,,,,223.10054133802237,
10.019,221.2,0.418,45.3,0.008000000000000895,0.418,221.2,45.3,,,,,223.1098300996374,
10.03,221.2,0.42,45.4,0.019000000000000128,0.42,221.2,45.4,,,,,223.06516833471858,
10.042,221.2,0.42,45.6,0.031000000000000583,0.42,221.2,45.6,,,,,223.07453031929413,
10.054,221.2,0.42,45.8,0.04300000000000104,0.42,221.2,45.8,,,,,223.08385448501525,
10.066,221.2,0.421,45.9,0.05500000000000149,0.421,221.2,45.9,,,,,223.06378944978889,
10.079,221.2,0.421,46.0,0.06800000000000139,0.421,221.2,46.0,,,,,223.06846042092272,
10.091,221.2,0.422,46.2,0.08000000000000007,0.422,221.2,46.2,,,,,223.05300543705326,
10.103,221.2,0.422,46.3,0.09200000000000053,0.422,221.2,46.3,,,,,223.05768061309658,
10.115,221.2,0.423,46.6,0.10400000000000098,0.423,221.2,46.6,,,,,223.04685766059552,
10.124,221.1,0.429,47.1,0.11300000000000132,0.429,221.1,47.1,,,,,222.9191056503702,
10.14,221.1,0.429,47.8,0.12900000000000134,0.429,221.1,47.8,,,,,222.95263794719924,
10.15,221.0,0.432,48.9,0.13900000000000112,0.432,221.0,48.9,,,,,222.92857120286735,
10.163,220.9,0.434,49.0,0.15200000000000102,0.434,220.9,49.0,,,,,222.8820568164861,
10.166,220.7,0.439,49.1,0.15500000000000114,0.439,220.7,49.1,,,,,222.75613539878648,
10.184,220.5,0.44,49.7,0.17300000000000004,0.44,220.5,49.7,,,,,222.7593270450512,
10.199,220.2,0.442,49.8,0.1880000000000006,0.442,220.2,49.8,,,,,222.71101844318696,
10.216,220.0,0.445,49.6,0.20500000000000007,0.445,220.0,49.6,,,,,222.61974650162088,
10.223,219.8,0.449,49.1,0.21200000000000152,0.449,219.8,49.1,,,,,222.482757275115,
10.228,219.6,0.454,49.1,0.21700000000000053,0.454,219.6,49.1,,,,,222.33997892149162,
10.255,219.3,0.454,49.4,0.24400000000000155,0.454,219.3,49.4,,,,,222.35636709296483,
10.275,219.1,0.457,49.8,0.2640000000000011,0.457,219.1,49.8,,,,,222.2911642423532,
10.296,218.9,0.462,49.7,0.28500000000000014,0.462,218.9,49.7,,,,,222.13728379368638,
10.312,218.6,0.467,49.6,0.30100000000000016,0.467,218.6,49.6,,,,,221.97880942591587,
10.333,218.4,0.47,49.5,0.32200000000000095,0.47,218.4,49.5,,,,,221.87908496627276,
10.346,218.1,0.473,49.7,0.33500000000000085,0.473,218.1,49.7,,,,,221.7959289021166,
10.373,217.9,0.477,49.9,0.3620000000000001,0.477,217.9,49.9,,,,,221.6790870435279,
10.396,217.7,0.482,49.9,0.38500000000000156,0.482,217.7,49.9,,,,,221.51383509123102,
10.407,217.4,0.484,49.8,0.3960000000000008,0.484,217.4,49.8,,,,,221.43998255150657,
10.435,217.2,0.486,49.7,0.42400000000000126,0.486,217.2,49.7,,,,,221.3652448462631,
10.456,216.9,0.492,49.8,0.4450000000000003,0.492,216.9,49.8,,,,,221.16305030767387,
10.476,216.7,0.499,50.3,0.46500000000000163,0.499,216.7,50.3,,,,,220.94646215792235,
10.496,216.4,0.505,50.2,0.4850000000000012,0.505,216.4,50.2,,,,,220.71713113637108,
10.511,216.1,0.506,50.4,0.5,0.506,216.1,50.4,,,,,220.6940801667359,
10.534,215.9,0.51,50.2,0.5230000000000015,0.51,215.9,50.2,,,,,220.52668217509748,
10.55,215.6,0.515,50.2,0.5390000000000015,0.515,215.6,50.2,,,,,220.33142628903192,
10.569,215.4,0.521,50.1,0.5580000000000016,0.521,215.4,50.1,,,,,220.08270722883356,
10.581,215.1,0.525,50.2,0.5700000000000003,0.525,215.1,50.2,,,,,219.9262443547388,
10.614,214.9,0.528,50.4,0.6030000000000015,0.528,214.9,50.4,,,,,219.81734467669867,
10.635,214.7,0.532,50.5,0.6240000000000006,0.532,214.7,50.5,,,,,219.6560616342299,
10.643,214.4,0.538,50.4,0.6320000000000014,0.538,214.4,50.4,,,,,219.386986553646,
10.676,214.2,0.543,50.5,0.6650000000000009,0.543,214.2,50.5,,,,,219.1730287777261,
10.693,214.0,0.548,50.5,0.6820000000000004,0.548,214.0,50.5,,,,,218.94517367130413,
10.714,213.7,0.554,50.6,0.7030000000000012,0.554,213.7,50.6,,,,,218.6741940933704,
10.722,213.5,0.556,50.6,0.7110000000000003,0.556,213.5,50.6,,,,,218.5791194722984,
10.755,213.2,0.564,50.8,0.7440000000000015,0.564,213.2,50.8,,,,,218.20992074308666,
10.772,213.0,0.565,50.7,0.761000000000001,0.565,213.0,50.7,,,,,218.15051704143028,
10.786,212.7,0.572,50.9,0.7750000000000004,0.572,212.7,50.9,,,,,217.8180048215515,
10.812,212.5,0.576,50.5,0.8010000000000002,0.576,212.5,50.5,,,,,217.57000138953265,
10.819,212.3,0.585,50.7,0.8080000000000016,0.585,212.3,50.7,,,,,217.112910917958,
10.851,212.1,0.588,50.8,0.8400000000000016,0.588,212.1,50.8,,,,,216.96051241969943,
10.871,211.9,0.593,51.1,0.8600000000000012,0.593,211.9,51.1,,,,,216.717560273971,
10.894,211.6,0.596,50.8,0.8830000000000009,0.596,211.6,50.8,,,,,216.51488724913673,
10.914,211.4,0.602,50.8,0.9030000000000005,0.602,211.4,50.8,,,,,216.17083629888972,
10.935,211.2,0.607,50.8,0.9240000000000013,0.607,211.2,50.8,,,,,215.87760263720173,
10.955,211.0,0.611,50.8,0.9440000000000008,0.611,211.0,50.8,,,,,215.6387002123524,
10.976,210.8,0.618,50.5,0.9650000000000016,0.618,210.8,50.5,,,,,215.17332850973924,
10.982,210.6,0.622,50.7,0.9710000000000001,0.622,210.6,50.7,,,,,214.948808375615,
11.013,210.4,0.626,50.6,1.0020000000000007,0.626,210.4,50.6,,,,,214.6819085097766,
11.03,210.2,0.631,50.5,1.0190000000000001,0.631,210.2,50.5,,,,,214.34536079637965,
11.054,210.1,0.636,50.7,1.043000000000001,0.636,210.1,50.7,,,,,214.0429587938096,
11.073,209.9,0.642,51.0,1.0620000000000012,0.642,209.9,51.0,,,,,213.68145506613467,
11.088,209.7,0.648,51.0,1.077,0.648,209.7,51.0,,,,,213.2698193686355,
11.115,209.5,0.652,51.2,1.104000000000001,0.652,209.5,51.2,,,,,213.019213781054,
11.135,209.3,0.657,51.1,1.1240000000000006,0.657,209.3,51.1,,,,,212.64958626451914,
11.156,209.1,0.663,50.9,1.1450000000000014,0.663,209.1,50.9,,,,,212.18433563763898,
11.172,208.9,0.668,50.7,1.1610000000000014,0.668,208.9,50.7,,,,,211.78292777810285,
11.193,208.8,0.671,50.6,1.1820000000000004,0.671,208.8,50.6,,,,,211.5413695682335,
11.207,208.6,0.676,50.5,1.1960000000000015,0.676,208.6,50.5,,,,,211.14317941925282,
11.234,208.5,0.68,50.3,1.2230000000000008,0.68,208.5,50.3,,,,,210.79960672862964,
11.24,208.4,0.684,50.7,1.229000000000001,0.684,208.4,50.7,,,,,210.55007519468006,
11.274,208.3,0.688,51.0,1.263,0.688,208.3,51.0,,,,,210.28107188850285,
11.291,208.1,0.693,51.0,1.2800000000000011,0.693,208.1,51.0,,,,,209.87662528608365,
11.309,207.9,0.697,51.0,1.298,0.697,207.9,51.0,,,,,209.5479848573455,
11.333,207.8,0.701,50.7,1.322000000000001,0.701,207.8,50.7,,,,,209.16201874620637,
11.352,207.6,0.706,50.2,1.341000000000001,0.706,207.6,50.2,,,,,208.64809327293122,
11.373,207.5,0.71,50.2,1.362,0.71,207.5,50.2,,,,,208.302426944353,
11.393,207.4,0.714,50.5,1.3820000000000014,0.714,207.4,50.5,,,,,208.0077444258166,
11.413,207.3,0.72,50.7,1.402000000000001,0.72,207.3,50.7,,,,,207.51241960007306,
11.423,207.2,0.721,50.9,1.4120000000000008,0.721,207.2,50.9,,,,,207.46051841737054,
11.455,207.0,0.725,50.9,1.4440000000000008,0.725,207.0,50.9,,,,,207.09906624903982,
11.472,206.9,0.729,50.6,1.4610000000000003,0.729,206.9,50.6,,,,,206.67438979317507,
11.489,206.8,0.732,50.3,1.4780000000000015,0.732,206.8,50.3,,,,,206.3366824475142,
11.511,206.7,0.736,50.3,1.5,0.736,206.7,50.3,,,,,205.9603516613151,
11.528,206.6,0.74,50.5,1.5170000000000012,0.74,206.6,50.5,,,,,205.61978484730088,
11.554,206.6,0.742,50.7,1.543000000000001,0.742,206.6,50.7,,,,,205.46845547402776,
11.574,206.5,0.746,50.7,1.5630000000000006,0.746,206.5,50.7,,,,,205.0809977814286,
11.594,206.4,0.75,50.7,1.5830000000000002,0.75,206.4,50.7,,,,,204.688590176584,
11.614,206.3,0.754,50.7,1.6030000000000015,0.754,206.3,50.7,,,,,204.2912007378573,
11.631,206.2,0.757,50.7,1.620000000000001,0.757,206.2,50.7,,,,,203.9898701274676,
11.646,206.1,0.761,50.8,1.6350000000000016,0.761,206.1,50.8,,,,,203.60542420194656,
11.673,206.0,0.763,50.7,1.6620000000000008,0.763,206.0,50.7,,,,,203.3786943264885,
11.69,205.9,0.765,50.7,1.6790000000000003,0.765,205.9,50.7,,,,,203.17243159016763,
11.704,205.9,0.768,50.6,1.6930000000000014,0.768,205.9,50.6,,,,,202.83837250041287,
11.731,205.8,0.77,50.5,1.7200000000000006,0.77,205.8,50.5,,,,,202.60632385959872,
11.754,205.8,0.772,50.5,1.7430000000000003,0.772,205.8,50.5,,,,,202.39528462697896,
11.775,205.7,0.774,50.6,1.7640000000000011,0.774,205.7,50.6,,,,,202.20569372772843,
11.791,205.6,0.776,50.7,1.7800000000000011,0.776,205.6,50.7,,,,,202.0150820460804,
11.812,205.6,0.779,50.7,1.8010000000000002,0.779,205.6,50.7,,,,,201.69265820432855,
11.831,205.5,0.781,50.6,1.8200000000000003,0.781,205.5,50.6,,,,,201.4528435466854,
11.853,205.5,0.783,50.5,1.8420000000000005,0.783,205.5,50.5,,,,,201.21139702664604,
11.871,205.4,0.785,50.5,1.8600000000000012,0.785,205.4,50.5,,,,,200.99189925691434,
11.892,205.4,0.786,50.5,1.8810000000000002,0.786,205.4,50.5,,,,,200.8816570176854,
11.909,205.3,0.789,50.5,1.8980000000000015,0.789,205.3,50.5,,,,,200.54895089723934,
11.924,205.3,0.79,50.6,1.9130000000000003,0.79,205.3,50.6,,,,,200.46132894657595,
11.95,205.3,0.791,50.7,1.939,0.791,205.3,50.7,,,,,200.37350354808538,
11.972,205.2,0.793,50.7,1.9610000000000003,0.793,205.2,50.7,,,,,200.1490223130794,
11.989,205.2,0.793,50.6,1.9780000000000015,0.793,205.2,50.6,,,,,200.12487612762254,
12.012,205.2,0.795,50.5,2.0010000000000012,0.795,205.2,50.5,,,,,199.87458645412903,
12.032,205.1,0.797,50.5,2.021000000000001,0.797,205.1,50.5,,,,,199.64713117131456,
12.053,205.1,0.797,50.6,2.0420000000000016,0.797,205.1,50.6,,,,,199.6716089420251,
12.074,205.1,0.798,50.7,2.0630000000000006,0.798,205.1,50.7,,,,,199.5819862875651,
12.088,205.1,0.798,50.7,2.077,0.798,205.1,50.7,,,,,199.5819862875651,
12.108,205.1,0.798,50.7,2.0970000000000013,0.798,205.1,50.7,,,,,199.5819862875651,
12.13,205.1,0.8,50.7,2.1190000000000015,0.8,205.1,50.7,,,,,199.35282822787258,
12.153,205.1,0.8,50.7,2.1420000000000012,0.8,205.1,50.7,,,,,199.35282822787258,
12.17,205.1,0.8,50.8,2.1590000000000007,0.8,205.1,50.8,,,,,199.37748821744486,
12.186,205.0,0.801,50.9,2.1750000000000007,0.801,205.0,50.9,,,,,199.28719500083014,
12.213,205.0,0.801,50.8,,,,,2.202,0.801,205.0,50.8,,197.05705448722028
12.233,205.0,0.801,50.8,,,,,2.2220000000000013,0.801,205.0,50.8,,197.05705448722028
12.254,205.0,0.801,50.7,,,,,2.2430000000000003,0.801,205.0,50.7,,197.03522994700606
12.27,205.0,0.8,50.6,,,,,2.2590000000000003,0.8,205.0,50.6,,197.13989889816955
12.291,205.0,0.801,50.6,,,,,2.280000000000001,0.801,205.0,50.6,,197.01339000274498
12.312,205.0,0.8,50.7,,,,,2.301,0.8,205.0,50.7,,197.1616746152952
12.331,205.0,0.798,50.6,,,,,2.3200000000000003,0.798,205.0,50.6,,197.39184791226947
12.348,205.0,0.797,50.4,,,,,2.3370000000000015,0.797,205.0,50.4,,197.47407587041462
12.368,205.0,0.797,50.3,,,,,2.357000000000001,0.797,205.0,50.3,,197.45244629104667
12.38,205.0,0.796,50.2,,,,,2.3690000000000015,0.796,205.0,50.2,,197.55614321508816
12.407,205.0,0.795,50.0,,,,,2.396000000000001,0.795,205.0,50.0,,197.63805010173763
12.431,205.0,0.795,49.9,,,,,2.42,0.795,205.0,49.9,,197.6164870412909
12.451,205.0,0.792,49.7,,,,,2.4400000000000013,0.792,205.0,49.7,,197.94710839833454
12.471,205.0,0.791,49.5,,,,,2.460000000000001,0.791,205.0,49.5,,198.02827571923885
12.491,205.0,0.79,49.3,,,,,2.4800000000000004,0.79,205.0,49.3,,198.10928346042576
12.512,205.0,0.787,49.1,,,,,2.5010000000000012,0.787,205.0,49.1,,198.4362085989862
12.523,205.0,0.786,48.8,,,,,2.5120000000000005,0.786,205.0,48.8,,198.49528921740682
12.549,205.0,0.785,48.5,,,,,2.5380000000000003,0.785,205.0,48.5,,198.55426169451815
12.56,205.0,0.781,48.2,,,,,2.5490000000000013,0.781,205.0,48.2,,198.9781610496231
12.588,205.1,0.778,47.9,,,,,2.577,0.778,205.1,47.9,,199.27772648105636
12.606,205.1,0.778,47.6,,,,,2.5950000000000006,0.778,205.1,47.6,,199.21526316982545
12.622,205.1,0.775,47.2,,,,,2.6110000000000007,0.775,205.1,47.2,,199.49241148817507
12.652,205.1,0.773,47.0,,,,,2.641,0.773,205.1,47.0,,199.6898932983862
12.671,205.1,0.769,46.7,,,,,2.66,0.769,205.1,46.7,,200.1024481269505
12.691,205.2,0.767,46.5,,,,,2.6800000000000015,0.767,205.2,46.5,,200.2970072674502
12.712,205.2,0.765,46.4,,,,,2.7010000000000005,0.765,205.2,46.4,,200.5108491093627
12.733,205.3,0.763,46.3,,,,,2.7220000000000013,0.763,205.3,46.3,,200.72355260624005
12.75,205.4,0.761,46.2,,,,,2.7390000000000008,0.761,205.4,46.2,,200.93512079665587
12.76,205.4,0.758,46.2,,,,,2.7490000000000006,0.758,205.4,46.2,,201.28008545609413
12.787,205.5,0.754,46.1,,,,,2.7760000000000016,0.754,205.5,46.1,,201.7157142546339
12.8,205.5,0.753,46.0,,,,,2.7890000000000015,0.753,205.5,46.0,,201.80920262877612
12.831,205.6,0.75,46.0,,,,,2.8200000000000003,0.75,205.6,46.0,,202.146416193866
12.848,205.6,0.748,45.9,,,,,2.8370000000000015,0.748,205.6,45.9,,202.35030638918468
12.872,205.7,0.746,45.8,,,,,2.8610000000000007,0.746,205.7,45.8,,202.55308509412743
12.889,205.7,0.742,45.8,,,,,2.878,0.742,205.7,45.8,,202.99315183463594
12.909,205.8,0.74,45.7,,,,,2.8980000000000015,0.74,205.8,45.7,,203.19240397643293
12.931,205.9,0.736,45.7,,,,,2.92,0.736,205.9,45.7,,203.62476044843288
12.951,206.0,0.732,45.6,,,,,2.9400000000000013,0.732,206.0,45.6,,204.03352797340722
12.971,206.1,0.728,45.5,,,,,2.960000000000001,0.728,206.1,45.5,,204.43752378060213
12.989,206.2,0.723,45.2,,,,,2.9780000000000015,0.723,206.2,45.2,,204.90460745897892
13.006,206.4,0.72,45.4,,,,,2.995000000000001,0.72,206.4,45.4,,205.24898347588763
13.028,206.5,0.714,45.5,,,,,3.0170000000000012,0.714,206.5,45.5,,205.87498928452715
13.041,206.6,0.71,45.5,,,,,3.030000000000001,0.71,206.6,45.5,,206.274192687871
13.07,206.7,0.706,45.3,,,,,3.059000000000001,0.706,206.7,45.3,,206.63461577261893
13.09,206.8,0.701,45.2,,,,,3.0790000000000006,0.701,206.8,45.2,,207.10420876543932
13.11,207.0,0.697,45.0,,,,,3.099,0.697,207.0,45.0,,207.45498132920986
13.13,207.1,0.692,45.0,,,,,3.1190000000000015,0.692,207.1,45.0,,207.9280415005409
13.151,207.2,0.687,45.0,,,,,3.1400000000000006,0.687,207.2,45.0,,208.39342356003158
13.171,207.4,0.682,44.9,,,,,3.16,0.682,207.4,44.9,,208.8355958873512
13.187,207.5,0.677,44.8,,,,,3.176,0.677,207.5,44.8,,209.27074411519854
13.204,207.6,0.674,44.7,,,,,3.1930000000000014,0.674,207.6,44.7,,209.52240767710526
13.218,207.8,0.668,44.7,,,,,3.2070000000000007,0.668,207.8,44.7,,210.04839537782152
13.251,208.0,0.662,44.5,,,,,3.24,0.662,208.0,44.5,,210.5346087451498
13.268,208.2,0.658,44.4,,,,,3.2570000000000014,0.658,208.2,44.4,,210.85836557822427
13.285,208.4,0.654,44.8,,,,,3.274000000000001,0.654,208.4,44.8,,211.24869067682658
13.31,208.5,0.649,45.1,,,,,3.2990000000000013,0.649,208.5,45.1,,211.69987139385339
13.331,208.6,0.644,45.1,,,,,3.3200000000000003,0.644,208.6,45.1,,212.1015808683095
13.351,208.8,0.636,44.7,,,,,3.3400000000000016,0.636,208.8,44.7,,212.67681449907212
13.368,209.0,0.633,44.2,,,,,3.357000000000001,0.633,209.0,44.2,,212.84277011257325
13.387,209.2,0.63,44.0,,,,,3.3760000000000012,0.63,209.2,44.0,,213.04651703827082
13.404,209.4,0.625,44.3,,,,,3.3930000000000007,0.625,209.4,44.3,,213.46265838056706
13.424,209.6,0.619,44.8,,,,,3.4130000000000003,0.619,209.6,44.8,,213.96827237843945
13.451,209.8,0.613,44.8,,,,,3.4400000000000013,0.613,209.8,44.8,,214.4006316098708
13.469,210.0,0.609,44.5,,,,,3.458,0.609,210.0,44.5,,214.647747216491
13.489,210.1,0.605,44.2,,,,,3.4780000000000015,0.605,210.1,44.2,,214.89164982936916
13.507,210.3,0.598,44.2,,,,,3.4960000000000004,0.598,210.3,44.2,,215.37111581801773
13.529,210.6,0.593,44.0,,,,,3.5180000000000007,0.593,210.6,44.0,,215.68329653257223
13.548,210.8,0.589,44.1,,,,,3.537000000000001,0.589,210.8,44.1,,215.95780569434817
13.569,211.0,0.583,44.2,,,,,3.5580000000000016,0.583,211.0,44.2,,216.3558181148462
13.59,211.2,0.578,44.3,,,,,3.5790000000000006,0.578,211.2,44.3,,216.68187795462927
13.61,211.4,0.574,44.1,,,,,3.599,0.574,211.4,44.1,,216.90886125274875
13.626,211.6,0.57,43.9,,,,,3.615,0.57,211.6,43.9,,217.13253698218946
13.648,211.8,0.564,43.9,,,,,3.6370000000000005,0.564,211.8,43.9,,217.49184936364836
13.666,212.1,0.559,44.0,,,,,3.655000000000001,0.559,212.1,44.0,,217.79432711334974
13.685,212.3,0.554,44.3,,,,,3.6740000000000013,0.554,212.3,44.3,,218.1093724696564
13.707,212.6,0.55,44.3,,,,,3.6960000000000015,0.55,212.6,44.3,,218.33377625328296
13.729,212.8,0.545,44.3,,,,,3.718,0.545,212.8,44.3,,218.6089774125278
13.749,213.0,0.538,44.6,,,,,3.7380000000000013,0.538,213.0,44.6,,219.01095084919635
13.769,213.2,0.534,44.5,,,,,3.758000000000001,0.534,213.2,44.5,,219.21131306678464
13.79,213.4,0.532,44.2,,,,,3.779,0.532,213.4,44.2,,219.28875329085366
13.81,213.6,0.527,44.3,,,,,3.7990000000000013,0.527,213.6,44.3,,219.5518522510171
13.826,213.8,0.523,44.1,,,,,3.8150000000000013,0.523,213.8,44.1,,219.73490659840616
13.848,214.0,0.519,44.0,,,,,3.8370000000000015,0.519,214.0,44.0,,219.923111195837
13.853,214.3,0.515,44.2,,,,,3.8420000000000005,0.515,214.3,44.2,,220.13195379318148
13.888,214.5,0.51,44.1,,,,,3.8770000000000007,0.51,214.5,44.1,,220.36008340149365
13.906,214.8,0.506,44.1,,,,,3.8950000000000014,0.506,214.8,44.1,,220.54505603334812
13.93,215.0,0.503,44.0,,,,,3.9190000000000005,0.503,215.0,44.0,,220.67403822405305
13.95,215.3,0.498,44.1,,,,,3.939,0.498,215.3,44.1,,220.90477169528876
13.97,215.5,0.494,44.3,,,,,3.9590000000000014,0.494,215.5,44.3,,221.0938934523735
13.99,215.7,0.489,44.3,,,,,3.979000000000001,0.489,215.7,44.3,,221.30737241978838
14.007,216.0,0.486,44.1,,,,,3.9960000000000004,0.486,216.0,44.1,,221.41925737346577
14.028,216.2,0.482,43.9,,,,,4.017000000000001,0.482,216.2,43.9,,221.570704968154
14.048,216.4,0.478,44.3,,,,,4.037000000000001,0.478,216.4,44.3,,221.75907618506346
14.068,216.6,0.476,44.3,,,,,4.057,0.476,216.6,44.3,,221.8385919462131
14.085,216.8,0.472,44.5,,,,,4.074000000000002,0.472,216.8,44.5,,222.00797716804644
14.102,217.0,0.468,44.3,,,,,4.091000000000001,0.468,217.0,44.3,,222.14875926945086
14.119,217.3,0.465,44.1,,,,,4.1080000000000005,0.465,217.3,44.1,,222.24956452779605
14.146,217.5,0.464,44.3,,,,,4.135000000000002,0.464,217.5,44.3,,222.29916222038327
14.167,217.7,0.459,44.3,,,,,4.156000000000001,0.459,217.7,44.3,,222.482842314848
14.19,217.9,0.456,44.3,,,,,4.179,0.456,217.9,44.3,,222.5907687641041
14.207,218.1,0.453,44.1,,,,,4.1960000000000015,0.453,218.1,44.1,,222.68550546105462
14.228,218.4,0.449,44.3,,,,,4.2170000000000005,0.449,218.4,44.3,,222.83603108571373
14.248,218.6,0.448,44.4,,,,,4.237,0.448,218.6,44.4,,222.87590182034273
14.269,218.7,0.445,44.5,,,,,4.258000000000001,0.445,218.7,44.5,,222.98306083170286
14.285,218.9,0.443,44.6,,,,,4.274000000000001,0.443,218.9,44.6,,223.05527817366175
14.31,219.0,0.44,44.6,,,,,4.299000000000001,0.44,219.0,44.6,,223.1540442838258
14.322,219.1,0.438,44.4,,,,,4.311,0.438,219.1,44.4,,223.2084839601328
14.339,219.3,0.437,44.0,,,,,4.328000000000001,0.437,219.3,44.0,,223.21978267933505
14.359,219.5,0.434,43.9,,,,,4.348000000000001,0.434,219.5,43.9,,223.31071068956894
14.389,219.7,0.433,44.2,,,,,4.378,0.433,219.7,44.2,,223.3578040207744
14.408,219.8,0.431,44.6,,,,,4.397,0.431,219.8,44.6,,223.44068352600988
