time,length,pressure,force,time_contraction,pressure_contraction,length_contraction,force_contraction,time_extension,pressure_extension,length_extension,force_extension,estimated_contraction_length,estimated_extension_length
10.011,160.5,0.213,45.5,0.0,0.213,192.5,45.5,,,,,158.78190642734918,
10.029,160.5,0.214,45.7,0.018000000000000682,0.214,192.5,45.7,,,,,158.77850100245752,
10.047,160.5,0.218,46.1,0.036000000000001364,0.218,192.5,46.1,,,,,158.74760931410256,
10.067,160.5,0.22,46.5,0.05600000000000094,0.22,192.5,46.5,,,,,158.74043787355288,
10.091,160.5,0.222,47.3,0.08000000000000007,0.222,192.5,47.3,,,,,158.75058803295974,
10.114,160.5,0.224,47.9,0.10300000000000153,0.224,192.5,47.9,,,,,158.752204242419,
10.134,160.4,0.227,48.5,0.12300000000000111,0.227,192.4,48.5,,,,,158.74143539724574,
10.149,160.4,0.229,49.0,0.1379999999999999,0.229,192.4,49.0,,,,,158.73865200427534,
10.168,160.3,0.233,49.4,0.15700000000000003,0.233,192.3,49.4,,,,,158.7056994756651,
10.192,160.1,0.234,49.7,0.18100000000000094,0.234,192.1,49.7,,,,,158.70648667749805,
10.213,159.8,0.239,50.0,0.20199999999999996,0.239,191.8,50.0,,,,,158.65456493557824,
10.234,159.6,0.24,50.1,0.22300000000000075,0.24,191.6,50.1,,,,,158.64584350839374,
10.242,159.2,0.242,49.9,0.23100000000000165,0.242,191.2,49.9,,,,,158.60930372015352,
10.277,158.9,0.246,49.5,0.266,0.246,190.9,49.5,,,,,158.53467697161733,
10.289,158.7,0.251,49.4,0.27800000000000047,0.251,190.7,49.4,,,,,158.45804093023344,
10.309,158.4,0.256,49.1,0.29800000000000004,0.256,190.4,49.1,,,,,158.36893020709417,
10.329,158.2,0.261,49.0,0.3180000000000014,0.261,190.2,49.0,,,,,158.2870748077908,
10.353,158.0,0.262,49.3,0.3420000000000005,0.262,190.0,49.3,,,,,158.2866727797977,
10.371,157.9,0.263,49.4,0.3600000000000012,0.263,189.9,49.4,,,,,158.27608084057846,
10.391,157.7,0.269,49.7,0.3800000000000008,0.269,189.7,49.7,,,,,158.19568649607268,
10.407,157.5,0.274,50.0,0.3960000000000008,0.274,189.5,50.0,,,,,158.12927044912425,
10.424,157.2,0.278,50.2,0.41300000000000026,0.278,189.2,50.2,,,,,158.07269371271707,
10.451,157.0,0.282,49.9,0.4400000000000013,0.282,189.0,49.9,,,,,157.98764662324956,
10.461,156.7,0.285,49.8,0.45000000000000107,0.285,188.7,49.8,,,,,157.92947833047828,
10.491,156.5,0.29,49.9,0.4800000000000004,0.29,188.5,49.9,,,,,157.8453371849882,
10.512,156.2,0.294,49.9,0.5010000000000012,0.294,188.2,49.9,,,,,157.77193521349747,
10.532,156.0,0.296,49.6,0.5210000000000008,0.296,188.0,49.6,,,,,157.717566477668,
10.552,155.8,0.304,49.4,0.5410000000000004,0.304,187.8,49.4,,,,,157.55264888054006,
10.568,155.6,0.308,49.7,0.5570000000000004,0.308,187.6,49.7,,,,,157.49139310290673,
10.587,155.4,0.311,49.9,0.5760000000000005,0.311,187.4,49.9,,,,,157.44326289523383,
10.605,155.2,0.316,49.8,0.5940000000000012,0.316,187.2,49.8,,,,,157.33538152928844,
10.62,155.0,0.321,49.8,0.609,0.321,187.0,49.8,,,,,157.23113226823014,
10.651,154.8,0.326,49.9,0.6400000000000006,0.326,186.8,49.9,,,,,157.13078538492994,
10.669,154.6,0.329,50.0,0.6580000000000013,0.329,186.6,50.0,,,,,157.07205978506457,
10.683,154.4,0.335,49.9,0.6720000000000006,0.335,186.4,49.9,,,,,156.9331862431273,
10.711,154.2,0.341,50.0,0.7000000000000011,0.341,186.2,50.0,,,,,156.8037541631477,
10.729,154.0,0.345,50.2,0.718,0.345,186.0,50.2,,,,,156.72449754636722,
10.751,153.8,0.349,50.4,0.7400000000000002,0.349,185.8,50.4,,,,,156.6440340159817,
10.773,153.6,0.354,50.2,0.7620000000000005,0.354,185.6,50.2,,,,,156.51137322266686,
10.791,153.4,0.359,49.9,0.7800000000000011,0.359,185.4,49.9,,,,,156.3691755343791,
10.808,153.3,0.362,49.8,0.7970000000000006,0.362,185.3,49.8,,,,,156.28799003690446,
10.832,153.1,0.368,49.8,0.8210000000000015,0.368,185.1,49.8,,,,,156.1367666149487,
10.852,153.0,0.373,49.8,0.8410000000000011,0.373,185.0,49.8,,,,,156.00817211998967,
10.869,152.8,0.378,50.1,0.8580000000000005,0.378,184.8,50.1,,,,,155.89877959459275,
10.887,152.7,0.383,50.2,0.8760000000000012,0.383,184.7,50.2,,,,,155.77304612197693,
10.912,152.6,0.388,50.2,0.9010000000000016,0.388,184.6,50.2,,,,,155.63778932722067,
10.931,152.4,0.394,50.3,0.9199999999999999,0.394,184.4,50.3,,,,,155.47986266773898,
10.946,152.2,0.4,50.5,0.9350000000000005,0.4,184.2,50.5,,,,,155.32636314606273,
10.966,152.1,0.404,50.5,0.9550000000000001,0.404,184.1,50.5,,,,,155.21219398456432,
10.989,151.9,0.409,50.2,0.9780000000000015,0.409,183.9,50.2,,,,,155.0441482936486,
11.012,151.7,0.413,50.0,1.0010000000000012,0.413,183.7,50.0,,,,,154.91076663427776,
11.032,151.6,0.418,49.9,1.0210000000000008,0.418,183.6,49.9,,,,,154.75338265022205,
11.051,151.5,0.422,49.7,1.040000000000001,0.422,183.5,49.7,,,,,154.61609401192808,
11.069,151.4,0.428,49.7,1.0580000000000016,0.428,183.4,49.7,,,,,154.43105369542292,
11.085,151.3,0.433,49.8,1.0740000000000016,0.433,183.3,49.8,,,,,154.28244892622575,
11.112,151.2,0.437,50.0,1.1010000000000009,0.437,183.2,50.0,,,,,154.17190267803784,
11.128,151.1,0.443,50.1,1.1170000000000009,0.443,183.1,50.1,,,,,153.98711236844076,
11.138,151.0,0.448,50.1,1.1270000000000007,0.448,183.0,50.1,,,,,153.82367482822667,
11.172,150.8,0.451,50.2,1.1610000000000014,0.451,182.8,50.2,,,,,153.73298644015568,
11.191,150.7,0.456,50.0,1.1800000000000015,0.456,182.7,50.0,,,,,153.5487186048026,
11.206,150.6,0.461,49.8,1.1950000000000003,0.461,182.6,49.8,,,,,153.3617524813191,
11.232,150.5,0.466,49.7,1.221,0.466,182.5,49.7,,,,,153.18085240034785,
11.25,150.4,0.471,49.6,1.2390000000000008,0.471,182.4,49.6,,,,,152.99743199048072,
11.27,150.3,0.476,49.7,1.2590000000000003,0.476,182.3,49.7,,,,,152.82937953593796,
11.287,150.2,0.479,49.8,1.2760000000000016,0.479,182.2,49.8,,,,,152.73111109209648,
11.305,150.1,0.483,49.8,1.2940000000000005,0.483,182.1,49.8,,,,,152.586848598498,
11.321,150.1,0.488,49.8,1.3100000000000005,0.488,182.1,49.8,,,,,152.40441368241233,
11.348,150.0,0.493,49.8,1.3370000000000015,0.493,182.0,49.8,,,,,152.2196378784516,
11.371,149.9,0.497,49.9,1.3600000000000012,0.497,181.9,49.9,,,,,152.07945617237536,
11.39,149.8,0.5,49.9,1.3790000000000013,0.5,181.8,49.9,,,,,151.96639749221305,
11.409,149.8,0.504,49.9,1.3980000000000015,0.504,181.8,49.9,,,,,151.81434168811992,
11.429,149.7,0.509,49.9,1.418000000000001,0.509,181.7,49.9,,,,,151.62216513391596,
11.449,149.6,0.514,49.9,1.4380000000000006,0.514,181.6,49.9,,,,,151.4276476918369,
11.463,149.5,0.517,50.0,1.452,0.517,181.5,50.0,,,,,151.319499081493,
11.491,149.4,0.521,49.9,1.4800000000000004,0.521,181.4,49.9,,,,,151.15139058129614,
11.511,149.4,0.522,49.8,1.5,0.522,181.4,49.8,,,,,151.10177590658293,
11.522,149.3,0.527,49.6,1.511000000000001,0.527,181.3,49.6,,,,,150.88135444354242,
11.551,149.3,0.53,49.6,1.540000000000001,0.53,181.3,49.6,,,,,150.75970640330726,
11.565,149.2,0.533,49.7,1.5540000000000003,0.533,181.2,49.7,,,,,150.64718719290354,
11.583,149.2,0.537,49.8,1.572000000000001,0.537,181.2,49.8,,,,,150.49267171842405,
11.609,149.1,0.541,50.0,1.5980000000000008,0.541,181.1,50.0,,,,,150.346920879806,
11.625,149.1,0.543,50.0,1.6140000000000008,0.543,181.1,50.0,,,,,150.26343817294202,
11.643,149.0,0.548,49.9,1.6320000000000014,0.548,181.0,49.9,,,,,150.04284873925258,
11.671,149.0,0.549,49.9,1.6600000000000001,0.549,181.0,49.9,,,,,150.00048073678167,
11.691,148.9,0.552,49.8,1.6800000000000015,0.552,180.9,49.8,,,,,149.86249953938955,
11.71,148.9,0.556,49.8,1.6990000000000016,0.556,180.9,49.8,,,,,149.69089547541023,
11.729,148.8,0.559,49.7,1.718,0.559,180.8,49.7,,,,,149.55076849118223,
11.742,148.8,0.563,49.7,1.7310000000000016,0.563,180.8,49.7,,,,,149.37647056001725,
11.768,148.8,0.564,49.8,1.7570000000000014,0.564,180.8,49.8,,,,,149.3431928427315,
11.79,148.7,0.566,49.8,1.779,0.566,180.7,49.8,,,,,149.25533082941178,
11.808,148.7,0.569,49.8,1.7970000000000006,0.569,180.7,49.8,,,,,149.12283554306967,
11.831,148.7,0.57,49.7,1.8200000000000003,0.57,180.7,49.7,,,,,149.06784421315092,
11.848,148.6,0.572,49.7,1.8370000000000015,0.572,180.6,49.7,,,,,148.97882253726837,
11.868,148.6,0.574,49.7,1.857000000000001,0.574,180.6,49.7,,,,,148.88942631932582,
11.89,148.6,0.575,49.7,1.8790000000000013,0.575,180.6,49.7,,,,,148.84458775708202,
11.908,148.6,0.577,49.7,1.8970000000000002,0.577,180.6,49.7,,,,,148.75462972604944,
11.928,148.5,0.58,49.7,1.9170000000000016,0.58,180.5,49.7,,,,,148.61899041313805,
11.938,148.5,0.582,49.8,1.9270000000000014,0.582,180.5,49.8,,,,,148.53895120869362,
11.97,148.5,0.582,49.8,1.9590000000000014,0.582,180.5,49.8,,,,,148.53895120869362,
11.988,148.5,0.583,49.9,1.9770000000000003,0.583,180.5,49.9,,,,,148.50425552134394,
12.009,148.5,0.586,49.9,1.998000000000001,0.586,180.5,49.9,,,,,148.3670388783109,
12.03,148.4,0.586,49.8,2.019,0.586,180.4,49.8,,,,,148.35611088291398,
12.048,148.4,0.588,49.7,2.037000000000001,0.588,180.4,49.7,,,,,148.25316561604757,
12.065,148.4,0.588,49.7,2.0540000000000003,0.588,180.4,49.7,,,,,148.25316561604757,
12.089,148.4,0.588,49.8,2.078000000000001,0.588,180.4,49.8,,,,,148.26412890693413,
12.109,148.4,0.588,49.8,2.0980000000000008,0.588,180.4,49.8,,,,,148.26412890693413,
12.13,148.4,0.589,49.8,2.1190000000000015,0.589,180.4,49.8,,,,,148.21799746567171,
12.149,148.4,0.588,49.7,2.138,0.588,180.4,49.7,,,,,148.25316561604757,
12.171,148.4,0.589,49.7,2.16,0.589,180.4,49.7,,,,,148.20701615659374,
12.191,148.4,0.589,49.7,2.1800000000000015,0.589,180.4,49.7,,,,,148.20701615659374,
12.21,148.4,0.589,49.7,2.1990000000000016,0.589,180.4,49.7,,,,,148.20701615659374,
12.228,148.4,0.591,49.7,2.2170000000000005,0.591,180.4,49.7,,,,,148.1144363311411,
12.249,148.4,0.589,49.7,,,,,2.2380000000000013,0.589,180.4,49.7,,146.68547663771122
12.269,148.4,0.589,49.7,,,,,2.258000000000001,0.589,180.4,49.7,,146.68547663771122
12.285,148.4,0.589,49.7,,,,,2.274000000000001,0.589,180.4,49.7,,146.68547663771122
12.31,148.4,0.587,49.6,,,,,2.2990000000000013,0.587,180.4,49.6,,146.7632818005577
12.326,148.4,0.587,49.5,,,,,2.3150000000000013,0.587,180.4,49.5,,146.75228727755405
12.347,148.4,0.586,49.5,,,,,2.3360000000000003,0.586,180.4,49.5,,146.79658734619852
12.366,148.4,0.586,49.5,,,,,2.3550000000000004,0.586,180.4,49.5,,146.79658734619852
12.375,148.4,0.585,49.4,,,,,2.3640000000000008,0.585,180.4,49.4,,146.82983905609242
12.408,148.4,0.582,49.4,,,,,2.3970000000000002,0.582,180.4,49.4,,146.96198061758454
12.423,148.4,0.581,49.2,,,,,2.412000000000001,0.581,180.4,49.2,,146.98407392987562
12.449,148.4,0.58,49.1,,,,,2.4380000000000006,0.58,180.4,49.1,,147.01701841971453
12.46,148.4,0.578,49.0,,,,,2.4490000000000016,0.578,180.4,49.0,,147.0935748228053
12.482,148.4,0.576,48.9,,,,,2.471,0.576,180.4,48.9,,147.1698416647982
12.499,148.4,0.576,48.8,,,,,2.4880000000000013,0.576,180.4,48.8,,147.15904891093427
12.53,148.4,0.574,48.7,,,,,2.519,0.574,180.4,48.7,,147.23506236861908
12.547,148.4,0.571,48.6,,,,,2.5360000000000014,0.571,180.4,48.6,,147.35389055096627
12.564,148.4,0.57,48.4,,,,,2.553000000000001,0.57,180.4,48.4,,147.37553824173116
12.584,148.4,0.567,48.3,,,,,2.5730000000000004,0.567,180.4,48.3,,147.4935148969143
12.601,148.4,0.565,48.1,,,,,2.5900000000000016,0.565,180.4,48.1,,147.5576524333294
12.626,148.4,0.564,48.0,,,,,2.615,0.564,180.4,48.0,,147.5896404479166
12.65,148.4,0.561,47.8,,,,,2.639000000000001,0.561,180.4,47.8,,147.69579637928
12.665,148.4,0.559,47.6,,,,,2.654,0.559,180.4,47.6,,147.75924984541177
12.684,148.4,0.556,47.5,,,,,2.673,0.556,180.4,47.5,,147.87487146766392
12.698,148.4,0.555,47.3,,,,,2.687000000000001,0.555,180.4,47.3,,147.89591339136499
12.724,148.4,0.553,47.1,,,,,2.713000000000001,0.553,180.4,47.1,,147.95868278721346
12.747,148.4,0.55,47.0,,,,,2.7360000000000007,0.55,180.4,47.0,,148.0730537851791
12.768,148.4,0.548,46.8,,,,,2.7570000000000014,0.548,180.4,46.8,,148.1352087409175
12.786,148.4,0.545,46.7,,,,,2.7750000000000004,0.545,180.4,46.7,,148.24847533023865
12.81,148.4,0.543,46.5,,,,,2.7990000000000013,0.543,180.4,46.5,,148.31001584586704
12.828,148.4,0.539,46.3,,,,,2.817,0.539,180.4,46.3,,148.4526679821763
12.843,148.4,0.536,46.2,,,,,2.8320000000000007,0.536,180.4,46.2,,148.56392530276966
12.867,148.5,0.533,46.0,,,,,2.8560000000000016,0.533,180.5,46.0,,148.66447447840633
12.873,148.5,0.528,45.9,,,,,2.862,0.528,180.5,45.9,,148.8538584457731
12.906,148.5,0.525,45.7,,,,,2.8950000000000014,0.525,180.5,45.7,,148.95268741095217
12.923,148.5,0.52,45.6,,,,,2.912000000000001,0.52,180.5,45.6,,149.13887106142386
12.948,148.6,0.516,45.6,,,,,2.937000000000001,0.516,180.6,45.6,,149.2940842571623
12.969,148.6,0.514,45.4,,,,,2.958,0.514,180.6,45.4,,149.35181755570125
12.989,148.7,0.509,45.4,,,,,2.9780000000000015,0.509,180.7,45.4,,149.5430802042284
13.0,148.7,0.505,45.3,,,,,2.9890000000000008,0.505,180.7,45.3,,149.68496068729695
13.019,148.8,0.501,45.2,,,,,3.008000000000001,0.501,180.8,45.2,,149.82554008334594
13.048,148.8,0.497,45.2,,,,,3.037000000000001,0.497,180.8,45.2,,149.9741868243717
13.068,148.9,0.493,45.1,,,,,3.0570000000000004,0.493,180.9,45.1,,150.11209355733286
13.084,149.0,0.487,45.0,,,,,3.0730000000000004,0.487,181.0,45.0,,150.3211109224993
13.105,149.0,0.483,44.9,,,,,3.094000000000001,0.483,181.0,44.9,,150.45572969338718
13.121,149.1,0.478,44.9,,,,,3.110000000000001,0.478,181.1,44.9,,150.63346930197275
13.149,149.2,0.473,44.9,,,,,3.138,0.473,181.2,44.9,,150.80895859714244
13.168,149.3,0.468,44.9,,,,,3.157,0.468,181.3,44.9,,150.9821975788962
13.184,149.4,0.465,44.9,,,,,3.173,0.465,181.4,44.9,,151.08506081750883
13.203,149.5,0.459,44.9,,,,,3.192,0.459,181.5,44.9,,151.28835695624494
13.225,149.5,0.455,44.7,,,,,3.2140000000000004,0.455,181.5,44.7,,151.40480476726864
13.243,149.6,0.45,44.7,,,,,3.232000000000001,0.45,181.6,44.7,,151.57011418201995
13.267,149.7,0.445,44.6,,,,,3.2560000000000002,0.445,181.7,44.6,,151.72470629274585
13.274,149.8,0.442,44.5,,,,,3.263,0.442,181.8,44.5,,151.81309941380562
13.307,149.9,0.437,44.6,,,,,3.296000000000001,0.437,181.9,44.6,,151.9810574520133
13.324,150.0,0.431,44.6,,,,,3.3130000000000006,0.431,182.0,44.6,,152.16954029492516
13.344,150.1,0.426,44.6,,,,,3.333,0.426,182.1,44.6,,152.32413398592755
13.364,150.2,0.421,44.5,,,,,3.3530000000000015,0.421,182.2,44.5,,152.46842398454282
13.387,150.3,0.416,44.5,,,,,3.3760000000000012,0.416,182.3,44.5,,152.6186028293608
13.401,150.4,0.412,44.3,,,,,3.3900000000000006,0.412,182.4,44.3,,152.72133332553625
13.428,150.6,0.406,44.2,,,,,3.4170000000000016,0.406,182.6,44.2,,152.88883265484662
13.447,150.7,0.401,44.2,,,,,3.436,0.401,182.7,44.2,,153.0325179013591
13.463,150.8,0.396,44.1,,,,,3.452,0.396,182.8,44.1,,153.16633581684457
13.486,150.9,0.39,44.1,,,,,3.4750000000000014,0.39,182.9,44.1,,153.33319025962834
13.502,151.1,0.387,44.1,,,,,3.4910000000000014,0.387,183.1,44.1,,153.41540231177567
13.526,151.2,0.382,44.0,,,,,3.5150000000000006,0.382,183.2,44.0,,153.54324718068747
13.547,151.4,0.377,44.0,,,,,3.5360000000000014,0.377,183.4,44.0,,153.67630248409841
13.567,151.5,0.374,44.0,,,,,3.556000000000001,0.374,183.5,44.0,,153.75505551570535
13.587,151.7,0.368,44.2,,,,,3.5760000000000005,0.368,183.7,44.2,,153.92440266787065
13.608,151.8,0.363,44.2,,,,,3.5970000000000013,0.363,183.8,44.2,,154.05098553242226
13.624,151.9,0.359,44.1,,,,,3.6130000000000013,0.359,183.9,44.1,,154.14364935758374
13.643,152.1,0.354,44.0,,,,,3.6320000000000014,0.354,184.1,44.0,,154.25937284299195
13.659,152.2,0.349,44.0,,,,,3.6480000000000015,0.349,184.2,44.0,,154.37982639127384
13.687,152.4,0.344,43.9,,,,,3.676,0.344,184.4,43.9,,154.49130845632322
13.706,152.5,0.34,43.7,,,,,3.6950000000000003,0.34,184.5,43.7,,154.5710199460694
13.721,152.7,0.335,43.7,,,,,3.710000000000001,0.335,184.7,43.7,,154.68542995872897
13.748,152.9,0.33,43.7,,,,,3.737,0.33,184.9,43.7,,154.79758965797265
13.767,153.1,0.326,43.9,,,,,3.7560000000000002,0.326,185.1,43.9,,154.89851631708777
13.78,153.3,0.322,44.1,,,,,3.769,0.322,185.3,44.1,,154.9977357356681
13.8,153.5,0.318,44.2,,,,,3.7890000000000015,0.318,185.5,44.2,,155.08896720967124
13.825,153.6,0.313,44.3,,,,,3.814,0.313,185.6,44.3,,155.1992418634589
13.846,153.8,0.308,44.4,,,,,3.835000000000001,0.308,185.8,44.4,,155.30709650706663
13.867,153.9,0.305,44.2,,,,,3.8560000000000016,0.305,185.9,44.2,,155.35489385678693
13.887,154.1,0.3,44.0,,,,,3.8760000000000012,0.3,186.1,44.0,,155.44118457846685
13.907,154.3,0.297,43.8,,,,,3.896000000000001,0.297,186.3,43.8,,155.4873169151795
13.924,154.5,0.293,43.8,,,,,3.9130000000000003,0.293,186.5,43.8,,155.5634741695611
13.942,154.7,0.289,44.0,,,,,3.931000000000001,0.289,186.7,44.0,,155.64974452421617
13.961,155.0,0.285,44.2,,,,,3.950000000000001,0.285,187.0,44.2,,155.7343076383365
13.985,155.2,0.28,44.3,,,,,3.974,0.28,187.2,44.3,,155.82916407130637
14.005,155.3,0.277,44.3,,,,,3.9940000000000015,0.277,187.3,44.3,,155.88156904958686
14.026,155.5,0.274,44.2,,,,,4.015000000000001,0.274,187.5,44.2,,155.9276380806923
14.046,155.7,0.269,44.2,,,,,4.035,0.269,187.7,44.2,,156.01191505302495
14.066,155.9,0.267,44.1,,,,,4.0550000000000015,0.267,187.9,44.1,,156.03959187729336
14.083,156.0,0.264,44.0,,,,,4.072000000000001,0.264,188.0,44.0,,156.08323875943296
14.101,156.2,0.261,44.0,,,,,4.090000000000002,0.261,188.2,44.0,,156.13147754112026
14.117,156.4,0.256,43.9,,,,,4.106000000000002,0.256,188.4,43.9,,156.20486382944398
14.133,156.6,0.253,43.9,,,,,4.122,0.253,188.6,43.9,,156.25099377864046
14.165,156.8,0.252,43.8,,,,,4.154,0.252,188.8,43.8,,156.26104946192567
14.184,157.0,0.249,43.8,,,,,4.173,0.249,189.0,43.8,,156.30615072907094
14.202,157.2,0.246,43.9,,,,,4.191000000000001,0.246,189.2,43.9,,156.35547988798328
14.22,157.4,0.242,43.9,,,,,4.209000000000001,0.242,189.4,43.9,,156.4132059603732
14.246,157.6,0.24,44.0,,,,,4.235000000000001,0.24,189.6,44.0,,156.44646585369904
14.26,157.8,0.238,44.0,,,,,4.2490000000000006,0.238,189.8,44.0,,156.47439445226865
14.284,158.0,0.234,44.0,,,,,4.2730000000000015,0.234,190.0,44.0,,156.5291714989683
14.304,158.2,0.231,44.0,,,,,4.293000000000001,0.231,190.2,44.0,,156.56930915235836
14.325,158.4,0.23,44.0,,,,,4.314,0.23,190.4,44.0,,156.58250834508175
14.336,158.5,0.229,44.1,,,,,4.325000000000001,0.229,190.5,44.1,,156.60036760472573
14.363,158.7,0.227,44.3,,,,,4.352,0.227,190.7,44.3,,156.63571874321917
14.386,158.8,0.224,44.3,,,,,4.375,0.224,190.8,44.3,,156.67381172817454
14.402,159.0,0.222,44.2,,,,,4.391,0.222,191.0,44.2,,156.69412327318258
