time,length,pressure,force,time_contraction,pressure_contraction,length_contraction,force_contraction,time_extension,pressure_extension,length_extension,force_extension,estimated_contraction_length,estimated_extension_length
10.038,159.8,0.214,46.4,0.0,0.214,192.8,46.4,,,,,157.19037990327266,
10.061,159.8,0.217,46.9,0.022999999999999687,0.217,192.8,46.9,,,,,157.18768409549702,
10.081,159.8,0.219,47.3,0.04299999999999926,0.219,192.8,47.3,,,,,157.1864637694766,
10.101,159.7,0.223,47.8,0.06300000000000061,0.223,192.7,47.8,,,,,157.18095404898312,
10.121,159.6,0.224,48.5,0.08300000000000018,0.224,192.6,48.5,,,,,157.18529855956177,
10.142,159.4,0.228,49.0,0.1039999999999992,0.228,192.4,49.0,,,,,157.17957997048458,
10.155,159.2,0.23,49.1,0.1169999999999991,0.23,192.2,49.1,,,,,157.1750105025618,
10.179,158.9,0.233,49.1,0.14100000000000001,0.233,191.9,49.1,,,,,157.16627381916638,
10.195,158.7,0.236,48.7,0.15700000000000003,0.236,191.7,48.7,,,,,157.15270474843592,
10.221,158.4,0.238,48.5,0.18299999999999983,0.238,191.4,48.5,,,,,157.14406409502618,
10.238,158.1,0.242,48.5,0.1999999999999993,0.242,191.1,48.5,,,,,157.13065793749766,
10.261,157.9,0.245,48.1,0.22299999999999898,0.245,190.9,48.1,,,,,157.11532340629626,
10.281,157.7,0.25,48.5,0.24300000000000033,0.25,190.7,48.5,,,,,157.1015240213225,
10.297,157.5,0.253,48.1,0.25900000000000034,0.253,190.5,48.1,,,,,157.08466076828654,
10.319,157.3,0.257,48.8,0.2810000000000006,0.257,190.3,48.8,,,,,157.07732682711327,
10.334,157.1,0.262,48.7,0.2959999999999994,0.262,190.1,48.7,,,,,157.0544121796135,
10.356,156.8,0.263,49.1,0.3179999999999996,0.263,189.8,49.1,,,,,157.05547088493327,
10.38,156.6,0.267,48.9,0.3420000000000005,0.267,189.6,48.9,,,,,157.03430252157858,
10.398,156.4,0.269,49.1,0.35999999999999943,0.269,189.4,49.1,,,,,157.02767353210405,
10.416,156.1,0.274,48.8,0.3780000000000001,0.274,189.1,48.8,,,,,156.99838594134465,
10.44,155.9,0.28,48.9,0.40199999999999925,0.28,188.9,48.9,,,,,156.96810319083022,
10.455,155.7,0.286,48.8,0.4169999999999998,0.286,188.7,48.8,,,,,156.93241150780744,
10.478,155.5,0.29,48.9,0.4399999999999995,0.29,188.5,48.9,,,,,156.91012945747602,
10.49,155.3,0.291,48.9,0.45199999999999996,0.291,188.3,48.9,,,,,156.90397845026547,
10.517,155.1,0.295,49.1,0.4789999999999992,0.295,188.1,49.1,,,,,156.88230111733927,
10.533,154.9,0.3,49.2,0.4949999999999992,0.3,187.9,49.2,,,,,156.85121067827558,
10.556,154.6,0.305,49.5,0.5179999999999989,0.305,187.6,49.5,,,,,156.82241190667278,
10.58,154.4,0.31,49.6,0.5419999999999998,0.31,187.4,49.6,,,,,156.78827460685275,
10.598,154.2,0.313,49.3,0.5600000000000005,0.313,187.2,49.3,,,,,156.75959951394495,
10.614,154.0,0.321,49.1,0.5760000000000005,0.321,187.0,49.1,,,,,156.6915657522904,
10.638,153.9,0.326,49.2,0.5999999999999996,0.326,186.9,49.2,,,,,156.65140917317544,
10.65,153.7,0.329,49.6,0.6120000000000001,0.329,186.7,49.6,,,,,156.6343370963978,
10.678,153.5,0.33,49.5,0.6400000000000006,0.33,186.5,49.5,,,,,156.6231310315065,
10.698,153.3,0.335,49.9,0.6600000000000001,0.335,186.3,49.9,,,,,156.5871420961783,
10.716,153.1,0.343,49.9,0.677999999999999,0.343,186.1,49.9,,,,,156.51039936733065,
10.731,152.9,0.348,50.0,0.6929999999999996,0.348,185.9,50.0,,,,,156.46235310782404,
10.759,152.7,0.352,49.9,0.7210000000000001,0.352,185.7,49.9,,,,,156.41760521977028,
10.772,152.5,0.357,49.7,0.734,0.357,185.5,49.7,,,,,156.35736166916558,
10.798,152.4,0.362,49.7,0.7599999999999998,0.362,185.4,49.7,,,,,156.30032447112222,
10.818,152.2,0.366,49.6,0.7799999999999994,0.366,185.2,49.6,,,,,156.25004611834854,
10.831,152.1,0.37,49.8,0.7929999999999993,0.37,185.1,49.8,,,,,156.20736593093022,
10.858,152.0,0.376,50.0,0.8200000000000003,0.376,185.0,50.0,,,,,156.13790415547552,
10.88,151.8,0.383,50.2,0.8420000000000005,0.383,184.8,50.2,,,,,156.0519781017956,
10.892,151.7,0.387,50.5,0.8539999999999992,0.387,184.7,50.5,,,,,156.00732824303265,
10.918,151.5,0.391,50.7,0.879999999999999,0.391,184.5,50.7,,,,,155.95807225010176,
10.936,151.3,0.396,50.4,0.8979999999999997,0.396,184.3,50.4,,,,,155.8748228698688,
10.955,151.1,0.402,50.2,0.9169999999999998,0.402,184.1,50.2,,,,,155.77659202662628,
10.976,150.9,0.407,50.0,0.9380000000000006,0.407,183.9,50.0,,,,,155.69008688158314,
10.994,150.8,0.412,50.0,0.9559999999999995,0.412,183.8,50.0,,,,,155.6084223776219,
11.018,150.7,0.416,49.9,0.9800000000000004,0.416,183.7,49.9,,,,,155.53700262657108,
11.037,150.6,0.418,49.9,0.9990000000000006,0.418,183.6,49.9,,,,,155.50263218155425,
11.059,150.5,0.424,50.1,1.020999999999999,0.424,183.5,50.1,,,,,155.40543144131945,
11.08,150.4,0.432,50.6,1.0419999999999998,0.432,183.4,50.6,,,,,155.2808135230033,
11.1,150.3,0.442,50.7,1.0619999999999994,0.442,183.3,50.7,,,,,155.09240987102896,
11.102,150.2,0.445,50.8,1.064,0.445,183.2,50.8,,,,,155.03703290755448,
11.135,150.0,0.446,50.7,1.0969999999999995,0.446,183.0,50.7,,,,,155.01190096506053,
11.151,149.8,0.45,50.4,1.1129999999999995,0.45,182.8,50.4,,,,,154.91453764817186,
11.178,149.7,0.455,50.1,1.1400000000000006,0.455,182.7,50.1,,,,,154.79290704417798,
11.194,149.6,0.461,49.7,1.1560000000000006,0.461,182.6,49.7,,,,,154.63950149576377,
11.22,149.5,0.464,49.6,1.1820000000000004,0.464,182.5,49.6,,,,,154.56593847016993,
11.24,149.4,0.466,49.6,1.202,0.466,182.4,49.6,,,,,154.5197945003276,
11.26,149.4,0.475,49.7,1.2219999999999995,0.475,182.4,49.7,,,,,154.3113744054016,
11.277,149.3,0.481,50.0,1.238999999999999,0.481,182.3,50.0,,,,,154.18047381011868,
11.297,149.2,0.484,50.0,1.2590000000000003,0.484,182.2,50.0,,,,,154.10462329938895,
11.318,149.1,0.488,49.9,1.2799999999999994,0.488,182.1,49.9,,,,,153.99546891717134,
11.337,149.0,0.492,49.9,1.2989999999999995,0.492,182.0,49.9,,,,,153.8900819084579,
11.359,148.9,0.495,49.7,1.3209999999999997,0.495,181.9,49.7,,,,,153.7969139614005,
11.379,148.8,0.5,49.5,1.3409999999999993,0.5,181.8,49.5,,,,,153.64659258338395,
11.398,148.7,0.505,49.4,1.3599999999999994,0.505,181.7,49.4,,,,,153.49870501454959,
11.415,148.6,0.508,49.5,1.376999999999999,0.508,181.6,49.5,,,,,153.41890785859314,
11.436,148.6,0.512,49.6,1.3979999999999997,0.512,181.6,49.6,,,,,153.30846282123272,
11.453,148.5,0.516,49.5,1.4149999999999991,0.516,181.5,49.5,,,,,153.18186853073342,
11.477,148.4,0.521,49.5,1.439,0.521,181.4,49.5,,,,,153.02888375059163,
11.496,148.4,0.523,49.4,1.4580000000000002,0.523,181.4,49.4,,,,,152.95936712689314,
11.514,148.3,0.528,49.4,1.475999999999999,0.528,181.3,49.4,,,,,152.80091283859898,
11.538,148.2,0.53,49.5,1.5,0.53,181.2,49.5,,,,,152.743966055225,
11.558,148.2,0.533,49.5,1.5199999999999996,0.533,181.2,49.5,,,,,152.64622829388387,
11.572,148.1,0.539,49.3,1.533999999999999,0.539,181.1,49.3,,,,,152.43089121948898,
11.593,148.1,0.542,49.4,1.5549999999999997,0.542,181.1,49.4,,,,,152.3366487357081,
11.617,148.0,0.542,49.4,1.5790000000000006,0.542,181.0,49.4,,,,,152.3366487357081,
11.638,148.0,0.545,49.4,1.5999999999999996,0.545,181.0,49.4,,,,,152.23314574546353,
11.658,147.9,0.553,49.4,1.6199999999999992,0.553,180.9,49.4,,,,,151.95006835369307,
11.677,147.9,0.555,49.5,1.6389999999999993,0.555,180.9,49.5,,,,,151.88607671117637,
11.696,147.8,0.558,49.5,1.6579999999999995,0.558,180.8,49.5,,,,,151.77636991857017,
11.716,147.8,0.561,49.4,1.677999999999999,0.561,180.8,49.4,,,,,151.6565570572759,
11.729,147.8,0.563,49.3,1.690999999999999,0.563,180.8,49.3,,,,,151.57282146920988,
11.756,147.7,0.565,49.4,1.718,0.565,180.7,49.4,,,,,151.5058290441111,
11.777,147.7,0.569,49.4,1.738999999999999,0.569,180.7,49.4,,,,,151.3524209739282,
11.79,147.7,0.57,49.5,1.751999999999999,0.57,180.7,49.5,,,,,151.3226095006776,
11.817,147.6,0.572,49.6,1.779,0.572,180.6,49.6,,,,,151.25366099359678,
11.835,147.6,0.574,49.6,1.7970000000000006,0.574,180.6,49.6,,,,,151.17507828726636,
11.85,147.6,0.575,49.6,1.8119999999999994,0.575,180.6,49.6,,,,,151.13553109410697,
11.868,147.6,0.577,49.5,1.83,0.577,180.6,49.5,,,,,151.04670010254014,
11.886,147.6,0.581,49.6,1.847999999999999,0.581,180.6,49.6,,,,,150.89464268776396,
11.916,147.5,0.582,49.8,1.8780000000000001,0.582,180.5,49.8,,,,,150.8727015980249,
11.935,147.5,0.582,49.8,1.8970000000000002,0.582,180.5,49.8,,,,,150.8727015980249,
11.954,147.5,0.585,49.8,1.9160000000000004,0.585,180.5,49.8,,,,,150.74963610968047,
11.975,147.5,0.586,49.8,1.9369999999999994,0.586,180.5,49.8,,,,,150.70826555610734,
11.997,147.5,0.587,49.8,1.9589999999999996,0.587,180.5,49.8,,,,,150.66672001911007,
12.017,147.4,0.588,49.8,1.9789999999999992,0.588,180.4,49.8,,,,,150.62499912587177,
12.041,147.4,0.589,49.8,2.003,0.589,180.4,49.8,,,,,150.58310250357545,
12.054,147.4,0.589,49.8,2.016,0.589,180.4,49.8,,,,,150.58310250357545,
12.072,147.4,0.591,49.7,2.033999999999999,0.591,180.4,49.7,,,,,150.4890237161134,
12.096,147.4,0.591,49.7,2.058,0.591,180.4,49.7,,,,,150.4890237161134,
12.117,147.4,0.591,49.7,2.0790000000000006,0.591,180.4,49.7,,,,,150.4890237161134,
12.136,147.4,0.591,49.7,2.097999999999999,0.591,180.4,49.7,,,,,150.4890237161134,
12.158,147.4,0.592,49.7,2.119999999999999,0.592,180.4,49.7,,,,,150.4465577713813,
12.177,147.4,0.591,49.6,2.1389999999999993,0.591,180.4,49.6,,,,,150.479258724411,
12.194,147.4,0.592,49.7,2.1560000000000006,0.592,180.4,49.7,,,,,150.4465577713813,
12.216,147.4,0.593,49.7,2.177999999999999,0.593,180.4,49.7,,,,,150.40391451899941,
12.229,147.4,0.593,49.7,,,,,2.190999999999999,0.593,180.4,49.7,,150.0970325266181
12.256,147.4,0.592,49.6,,,,,2.218,0.592,180.4,49.6,,150.12825802057222
12.276,147.4,0.588,49.5,,,,,2.2379999999999995,0.588,180.4,49.5,,150.28032634469793
12.291,147.4,0.587,49.5,,,,,2.253,0.587,180.4,49.5,,150.3202946121229
12.317,147.4,0.589,49.4,,,,,2.279,0.589,180.4,49.4,,150.23076571838027
12.337,147.4,0.588,49.4,,,,,2.2989999999999995,0.588,180.4,49.4,,150.27095034502085
12.354,147.4,0.586,49.3,,,,,2.315999999999999,0.586,180.4,49.3,,150.3414982143246
12.374,147.4,0.586,49.2,,,,,2.3360000000000003,0.586,180.4,49.2,,150.33218151996337
12.386,147.4,0.583,49.1,,,,,2.347999999999999,0.583,180.4,49.1,,150.44172570250103
12.413,147.4,0.585,49.0,,,,,2.375,0.585,180.4,49.0,,150.3533470817508
12.435,147.4,0.581,49.0,,,,,2.3970000000000002,0.581,180.4,49.0,,150.510989709304
12.451,147.4,0.58,48.8,,,,,2.4130000000000003,0.58,180.4,48.8,,150.531760853033
12.477,147.4,0.578,48.8,,,,,2.439,0.578,180.4,48.8,,150.60938732864827
12.494,147.4,0.576,48.6,,,,,2.4559999999999995,0.576,180.4,48.6,,150.6684102730654
12.511,147.4,0.575,48.5,,,,,2.472999999999999,0.575,180.4,48.5,,150.69777527905725
12.534,147.4,0.572,48.4,,,,,2.4960000000000004,0.572,180.4,48.4,,150.802979406725
12.556,147.4,0.57,48.2,,,,,2.517999999999999,0.57,180.4,48.2,,150.8607199342465
12.576,147.4,0.569,48.1,,,,,2.5380000000000003,0.569,180.4,48.1,,150.88944533214433
12.587,147.4,0.566,47.9,,,,,2.5489999999999995,0.566,180.4,47.9,,150.9836984175147
12.614,147.4,0.564,47.8,,,,,2.5760000000000005,0.564,180.4,47.8,,151.04881184307527
12.637,147.4,0.563,47.6,,,,,2.599,0.563,180.4,47.6,,151.06834881046174
12.655,147.4,0.559,47.4,,,,,2.616999999999999,0.559,180.4,47.4,,151.19675442043928
12.673,147.4,0.558,47.3,,,,,2.635,0.558,180.4,47.3,,151.224344262916
12.695,147.4,0.555,47.1,,,,,2.657,0.555,180.4,47.1,,151.31485230039888
12.71,147.4,0.554,46.9,,,,,2.6720000000000006,0.554,180.4,46.9,,151.3337608850067
12.735,147.4,0.55,46.8,,,,,2.696999999999999,0.55,180.4,46.8,,151.46613432403007
12.756,147.4,0.548,46.6,,,,,2.718,0.548,180.4,46.6,,151.519366901851
12.777,147.4,0.544,46.5,,,,,2.738999999999999,0.544,180.4,46.5,,151.64856882371876
12.796,147.4,0.542,46.3,,,,,2.757999999999999,0.542,180.4,46.3,,151.7005293254009
12.816,147.4,0.538,46.1,,,,,2.7780000000000005,0.538,180.4,46.1,,151.8188623636438
12.836,147.4,0.534,46.0,,,,,2.798,0.534,180.4,46.0,,151.9428645158835
12.852,147.5,0.531,45.9,,,,,2.814,0.531,180.5,45.9,,152.03255296330377
12.874,147.5,0.527,45.8,,,,,2.8360000000000003,0.527,180.5,45.8,,152.15276608340386
12.892,147.5,0.523,45.7,,,,,2.853999999999999,0.523,180.5,45.7,,152.27082082943258
12.916,147.6,0.517,45.6,,,,,2.878,0.517,180.6,45.6,,152.44739946783244
12.936,147.6,0.514,45.5,,,,,2.8979999999999997,0.514,180.6,45.5,,152.53038036441808
12.954,147.7,0.511,45.4,,,,,2.9160000000000004,0.511,180.7,45.4,,152.61223435863897
12.976,147.7,0.509,45.4,,,,,2.9380000000000006,0.509,180.7,45.4,,152.67066691471373
12.988,147.8,0.501,45.4,,,,,2.9499999999999993,0.501,180.8,45.4,,152.89855636362148
13.014,147.8,0.5,45.4,,,,,2.975999999999999,0.5,180.8,45.4,,152.92639183868354
13.035,147.9,0.495,45.2,,,,,2.997,0.495,180.9,45.2,,153.05095799407155
13.055,147.9,0.49,45.1,,,,,3.0169999999999995,0.49,180.9,45.1,,153.17872964215766
13.071,148.0,0.484,45.0,,,,,3.0329999999999995,0.484,181.0,45.0,,153.32906635581693
13.096,148.1,0.481,45.0,,,,,3.058,0.481,181.1,45.0,,153.40541600965696
13.105,148.2,0.477,45.0,,,,,3.067,0.477,181.2,45.0,,153.50530767978577
13.136,148.3,0.471,44.9,,,,,3.097999999999999,0.471,181.3,44.9,,153.6456471031418
13.156,148.3,0.467,44.9,,,,,3.1180000000000003,0.467,181.3,44.9,,153.7403200585946
13.17,148.4,0.462,44.8,,,,,3.1319999999999997,0.462,181.4,44.8,,153.85053313810226
13.194,148.5,0.457,44.8,,,,,3.1560000000000006,0.457,181.5,44.8,,153.9628547589041
13.216,148.6,0.454,44.7,,,,,3.177999999999999,0.454,181.6,44.7,,154.02377524223107
13.234,148.7,0.449,44.7,,,,,3.1959999999999997,0.449,181.7,44.7,,154.13117860015754
13.255,148.8,0.443,44.6,,,,,3.2170000000000005,0.443,181.8,44.6,,154.25134449831046
13.275,148.8,0.438,44.5,,,,,3.237,0.438,181.8,44.5,,154.347637803835
13.287,148.9,0.433,44.3,,,,,3.2490000000000006,0.433,181.9,44.3,,154.4368521519293
13.314,149.0,0.432,44.2,,,,,3.276,0.432,182.0,44.2,,154.45180209144277
13.33,149.2,0.424,44.3,,,,,3.292,0.424,182.2,44.3,,154.6061733210453
13.354,149.3,0.42,44.3,,,,,3.315999999999999,0.42,182.3,44.3,,154.67841695871064
13.372,149.4,0.413,44.2,,,,,3.3339999999999996,0.413,182.4,44.2,,154.7966743976331
13.394,149.5,0.407,44.2,,,,,3.356,0.407,182.5,44.2,,154.8971315704598
13.414,149.6,0.404,44.1,,,,,3.3759999999999994,0.404,182.6,44.1,,154.94230348827307
13.435,149.7,0.399,43.9,,,,,3.3970000000000002,0.399,182.7,43.9,,155.0146076250842
13.454,149.9,0.395,43.9,,,,,3.4160000000000004,0.395,182.9,43.9,,155.0762944241608
13.472,150.0,0.388,43.9,,,,,3.4339999999999993,0.388,183.0,43.9,,155.18024340705048
13.484,150.1,0.383,43.8,,,,,3.4459999999999997,0.383,183.1,43.8,,155.2483431412282
13.502,150.2,0.379,43.7,,,,,3.4640000000000004,0.379,183.2,43.7,,155.3005857487851
13.535,150.4,0.374,43.6,,,,,3.497,0.374,183.4,43.6,,155.3646524206723
13.55,150.5,0.37,43.6,,,,,3.5120000000000005,0.37,183.5,43.6,,155.41657493850167
13.575,150.6,0.366,43.6,,,,,3.536999999999999,0.366,183.6,43.6,,155.46697712214217
13.594,150.8,0.36,43.6,,,,,3.555999999999999,0.36,183.8,43.6,,155.5397839143452
13.613,151.0,0.356,43.5,,,,,3.5749999999999993,0.356,184.0,43.5,,155.58397471905832
13.629,151.1,0.35,43.5,,,,,3.5909999999999993,0.35,184.1,43.5,,155.65147940863426
13.646,151.3,0.345,43.5,,,,,3.6080000000000005,0.345,184.3,43.5,,155.70532637105126
13.671,151.5,0.34,43.5,,,,,3.632999999999999,0.34,184.5,43.5,,155.75703676623016
13.693,151.6,0.335,43.5,,,,,3.6549999999999994,0.335,184.6,43.5,,155.8066589364446
13.713,151.8,0.332,43.6,,,,,3.674999999999999,0.332,184.8,43.6,,155.83750985038958
13.735,152.0,0.324,43.4,,,,,3.696999999999999,0.324,185.0,43.4,,155.9067906438292
13.752,152.1,0.326,43.4,,,,,3.7140000000000004,0.326,185.1,43.4,,155.8889119335515
13.771,152.3,0.321,43.3,,,,,3.7330000000000005,0.321,185.3,43.3,,155.93115076375057
13.793,152.5,0.316,43.4,,,,,3.754999999999999,0.316,185.5,43.4,,155.97523836619519
13.812,152.7,0.308,43.3,,,,,3.773999999999999,0.308,185.7,43.3,,156.03725663301626
13.827,152.9,0.305,43.6,,,,,3.7889999999999997,0.305,185.9,43.6,,156.0648658091314
13.854,153.1,0.301,43.7,,,,,3.815999999999999,0.301,186.1,43.7,,156.09558983696084
13.873,153.3,0.296,43.6,,,,,3.834999999999999,0.296,186.3,43.6,,156.1289541886579
13.894,153.5,0.293,43.5,,,,,3.856,0.293,186.5,43.5,,156.14765836158085
13.914,153.7,0.289,43.5,,,,,3.8759999999999994,0.289,186.7,43.5,,156.1736714064644
13.935,153.9,0.284,43.7,,,,,3.8970000000000002,0.284,186.9,43.7,,156.20741779178425
13.952,154.1,0.282,43.8,,,,,3.9139999999999997,0.282,187.1,43.8,,156.22066966884174
13.973,154.4,0.277,43.9,,,,,3.9350000000000005,0.277,187.4,43.9,,156.25066419209264
13.993,154.6,0.273,44.0,,,,,3.955,0.273,187.6,44.0,,156.27375439709107
14.013,154.8,0.269,44.1,,,,,3.9749999999999996,0.269,187.8,44.1,,156.2958412714861
14.033,155.0,0.267,44.1,,,,,3.994999999999999,0.267,188.0,44.1,,156.30595372541433
14.053,155.2,0.262,44.2,,,,,4.015000000000001,0.262,188.2,44.2,,156.33136330096696
14.074,155.4,0.26,44.2,,,,,4.036,0.26,188.4,44.2,,156.34070496529102
14.094,155.6,0.256,44.2,,,,,4.055999999999999,0.256,188.6,44.2,,156.35876957014779
14.111,155.8,0.253,44.1,,,,,4.073,0.253,188.8,44.1,,156.37079497820946
14.132,156.0,0.25,44.1,,,,,4.093999999999999,0.25,189.0,44.1,,156.38339823095527
14.152,156.2,0.247,44.1,,,,,4.113999999999999,0.247,189.2,44.1,,156.3955689345484
14.173,156.4,0.244,44.2,,,,,4.135,0.244,189.4,44.2,,156.40823635558348
14.194,156.6,0.24,44.2,,,,,4.156000000000001,0.24,189.6,44.2,,156.4232321118308
14.21,156.8,0.238,44.1,,,,,4.172000000000001,0.238,189.8,44.1,,156.42959016972296
14.233,157.0,0.236,44.1,,,,,4.195,0.236,190.0,44.1,,156.43666289618037
14.249,157.2,0.234,44.1,,,,,4.211,0.234,190.2,44.1,,156.4435650359085
14.269,157.4,0.23,44.1,,,,,4.231,0.23,190.4,44.1,,156.456869930799
14.292,157.6,0.227,44.1,,,,,4.254,0.227,190.6,44.1,,156.46642382272478
14.312,157.8,0.225,44.1,,,,,4.273999999999999,0.225,190.8,44.1,,156.47259660925187
14.332,158.0,0.224,44.2,,,,,4.2940000000000005,0.224,191.0,44.2,,156.47640930883938
14.352,158.1,0.223,44.3,,,,,4.314,0.223,191.1,44.3,,156.48017359264836
14.373,158.3,0.219,44.4,,,,,4.334999999999999,0.219,191.3,44.4,,156.49248059612424
14.388,158.4,0.217,44.3,,,,,4.35,0.217,191.4,44.3,,156.49727869969018
14.405,158.5,0.216,44.2,,,,,4.366999999999999,0.216,191.5,44.2,,156.49926092797236
