time,length,pressure,force,time_contraction,pressure_contraction,length_contraction,force_contraction,time_extension,pressure_extension,length_extension,force_extension,estimated_contraction_length,estimated_extension_length
10.006,160.2,0.203,44.8,0.0,0.203,193.2,44.8,,,,,158.17788819136263,
10.014,160.2,0.203,44.9,0.007999999999999119,0.203,193.2,44.9,,,,,158.18188102260382,
10.03,160.2,0.203,45.0,0.023999999999999133,0.203,193.2,45.0,,,,,158.18587346004188,
10.042,160.2,0.205,45.1,0.03599999999999959,0.205,193.2,45.1,,,,,158.16987512533487,
10.053,160.2,0.206,45.3,0.0470000000000006,0.206,193.2,45.3,,,,,158.16784447149985,
10.067,160.2,0.206,45.4,0.06099999999999994,0.206,193.2,45.4,,,,,158.17189695124188,
10.08,160.2,0.206,45.5,0.07399999999999984,0.206,193.2,45.5,,,,,158.17594903718077,
10.089,160.2,0.206,45.7,0.08300000000000018,0.206,193.2,45.7,,,,,158.18405202764902,
10.104,160.2,0.207,45.8,0.09799999999999898,0.207,193.2,45.8,,,,,158.17801550795022,
10.117,160.2,0.208,45.9,0.11100000000000065,0.208,193.2,45.9,,,,,158.1719252690876,
10.129,160.1,0.211,46.2,0.12299999999999933,0.211,193.1,46.2,,,,,158.1533322375168,
10.139,160.1,0.212,46.7,0.13299999999999912,0.212,193.1,46.7,,,,,158.16371186615464,
10.149,160.1,0.214,47.2,0.1429999999999989,0.214,193.1,47.2,,,,,158.16373193597767,
10.162,160.1,0.218,47.7,0.15600000000000058,0.218,193.1,47.7,,,,,158.14239849162635,
10.174,160.0,0.223,48.4,0.16799999999999926,0.223,193.0,48.4,,,,,158.11804142337925,
10.186,159.9,0.224,48.9,0.17999999999999972,0.224,192.9,48.9,,,,,158.12892910132965,
10.199,159.8,0.224,49.2,0.19299999999999962,0.224,192.8,49.2,,,,,158.14215194370425,
10.211,159.6,0.227,49.2,0.20500000000000007,0.227,192.6,49.2,,,,,158.10860365539526,
10.221,159.4,0.229,49.3,0.21499999999999986,0.229,192.4,49.3,,,,,158.0902756337101,
10.235,159.2,0.233,49.3,0.2289999999999992,0.233,192.2,49.3,,,,,158.04354985780847,
10.245,158.9,0.236,49.3,0.238999999999999,0.236,191.9,49.3,,,,,158.0075142869789,
10.261,158.6,0.24,49.3,0.254999999999999,0.24,191.6,49.3,,,,,157.958145207335,
10.27,158.4,0.242,49.3,0.26399999999999935,0.242,191.4,49.3,,,,,157.9328942452826,
10.283,158.1,0.245,49.3,0.27699999999999925,0.245,191.1,49.3,,,,,157.89430977441586,
10.297,157.8,0.249,49.1,0.29100000000000037,0.249,190.8,49.1,,,,,157.83170115593842,
10.309,157.6,0.251,49.0,0.30299999999999905,0.251,190.6,49.0,,,,,157.79970659873126,
10.326,157.4,0.256,48.7,0.3200000000000003,0.256,190.4,48.7,,,,,157.71517390872407,
10.345,157.2,0.26,48.7,0.3390000000000004,0.26,190.2,48.7,,,,,157.65775959254077,
10.36,157.0,0.266,49.0,0.3539999999999992,0.266,190.0,49.0,,,,,157.58461914800512,
10.383,156.8,0.268,49.3,0.3769999999999989,0.268,189.8,49.3,,,,,157.57026878995177,
10.404,156.6,0.273,49.5,0.3979999999999997,0.273,189.6,49.5,,,,,157.50404214882528,
10.424,156.4,0.275,49.5,0.41799999999999926,0.275,189.4,49.5,,,,,157.47264269892636,
10.445,156.2,0.28,49.8,0.43900000000000006,0.28,189.2,49.8,,,,,157.40915834418877,
10.464,155.9,0.283,49.7,0.4580000000000002,0.283,188.9,49.7,,,,,157.35450326986296,
10.485,155.6,0.29,49.7,0.4789999999999992,0.29,188.6,49.7,,,,,157.23663241943314,
10.505,155.3,0.295,49.5,0.49900000000000055,0.295,188.3,49.5,,,,,157.13787938481954,
10.523,155.0,0.297,49.5,0.5169999999999995,0.297,188.0,49.5,,,,,157.1023261718971,
10.543,154.8,0.297,48.9,0.536999999999999,0.297,187.8,48.9,,,,,157.0668878739495,
10.562,154.6,0.304,48.7,0.5559999999999992,0.304,187.6,48.7,,,,,156.92651180195946,
10.585,154.5,0.311,48.9,0.5790000000000006,0.311,187.5,48.9,,,,,156.80571687805792,
10.6,154.3,0.315,49.4,0.5939999999999994,0.315,187.3,49.4,,,,,156.75907948509746,
10.625,154.2,0.318,49.5,0.6189999999999998,0.318,187.2,49.5,,,,,156.70621894143443,
10.644,154.0,0.323,49.7,0.6379999999999999,0.323,187.0,49.7,,,,,156.61864910776796,
10.666,153.8,0.328,50.0,0.6600000000000001,0.328,186.8,50.0,,,,,156.53566853351202,
10.676,153.6,0.334,50.0,0.6699999999999999,0.334,186.6,50.0,,,,,156.40980029184396,
10.703,153.3,0.339,50.0,0.6969999999999992,0.339,186.3,50.0,,,,,156.3023139885642,
10.721,153.1,0.348,49.6,0.7149999999999999,0.348,186.1,49.6,,,,,156.07508513742107,
10.743,152.9,0.351,49.4,0.7370000000000001,0.351,185.9,49.4,,,,,155.99263650712663,
10.764,152.7,0.354,49.2,0.7579999999999991,0.354,185.7,49.2,,,,,155.90909019820734,
10.785,152.6,0.354,49.1,0.7789999999999999,0.354,185.6,49.1,,,,,155.90201288549866,
10.805,152.5,0.357,49.3,0.7989999999999995,0.357,185.5,49.3,,,,,155.84586300133904,
10.823,152.3,0.368,49.9,0.8170000000000002,0.368,185.3,49.9,,,,,155.62499069224268,
10.84,152.2,0.378,50.4,0.8339999999999996,0.378,185.2,50.4,,,,,155.41318691565695,
10.863,152.0,0.385,50.4,0.8569999999999993,0.385,185.0,50.4,,,,,155.23354402078675,
10.883,151.8,0.384,50.2,0.8769999999999989,0.384,184.8,50.2,,,,,155.24411258432065,
10.904,151.6,0.387,50.0,0.8979999999999997,0.387,184.6,50.0,,,,,155.1503639642162,
10.92,151.4,0.39,50.0,0.9139999999999997,0.39,184.4,50.0,,,,,155.0711452042558,
10.944,151.3,0.396,49.7,0.9380000000000006,0.396,184.3,49.7,,,,,154.88634718034007,
10.965,151.2,0.404,49.8,0.9589999999999996,0.404,184.2,49.8,,,,,154.67402098127866,
10.984,151.1,0.409,49.7,0.9779999999999998,0.409,184.1,49.7,,,,,154.52508338513755,
11.0,151.0,0.412,50.3,0.9939999999999998,0.412,184.0,50.3,,,,,154.48904055231094,
11.022,150.9,0.416,50.4,1.016,0.416,183.9,50.4,,,,,154.3823788469263,
11.043,150.7,0.423,50.5,1.036999999999999,0.423,183.7,50.5,,,,,154.18611396265456,
11.06,150.6,0.431,50.5,1.0540000000000003,0.431,183.6,50.5,,,,,153.94660916181695,
11.081,150.4,0.434,50.6,1.0749999999999993,0.434,183.4,50.6,,,,,153.86395213361004,
11.105,150.3,0.438,50.3,1.0990000000000002,0.438,183.3,50.3,,,,,153.71449090529816,
11.122,150.1,0.442,49.9,1.1159999999999997,0.442,183.1,49.9,,,,,153.55414112390596,
11.141,150.1,0.443,49.9,1.1349999999999998,0.443,183.1,49.9,,,,,153.52261653133928,
11.158,150.0,0.453,50.1,1.1519999999999992,0.453,183.0,50.1,,,,,153.22039308875358,
11.182,149.9,0.456,50.3,1.1760000000000002,0.456,182.9,50.3,,,,,153.14088035938514,
11.202,149.8,0.461,50.3,1.1959999999999997,0.461,182.8,50.3,,,,,152.9761158835894,
11.223,149.7,0.468,50.4,1.2170000000000005,0.468,182.7,50.4,,,,,152.7508947145643,
11.24,149.6,0.473,50.6,1.234,0.473,182.6,50.6,,,,,152.59960102804214,
11.264,149.5,0.477,50.5,1.2579999999999991,0.477,182.5,50.5,,,,,152.45220715529078,
11.285,149.3,0.478,50.0,1.279,0.478,182.3,50.0,,,,,152.36940247694145,
11.301,149.2,0.482,49.8,1.295,0.482,182.2,49.8,,,,,152.20981896114645,
11.321,149.2,0.489,49.6,1.3149999999999995,0.489,182.2,49.6,,,,,151.94089165366637,
11.341,149.1,0.493,49.7,1.334999999999999,0.493,182.1,49.7,,,,,151.8061627831772,
11.362,149.0,0.501,49.8,1.3559999999999999,0.501,182.0,49.8,,,,,151.52257160867742,
11.382,149.0,0.501,50.0,1.3759999999999994,0.501,182.0,50.0,,,,,151.5427588436763,
11.403,148.9,0.506,50.2,1.3970000000000002,0.506,181.9,50.2,,,,,151.37683649816265,
11.424,148.8,0.51,50.3,1.4179999999999993,0.51,181.8,50.3,,,,,151.2365279189695,
11.444,148.7,0.514,50.2,1.4380000000000006,0.514,181.7,50.2,,,,,151.0741546970186,
11.461,148.7,0.516,50.0,1.455,0.516,181.7,50.0,,,,,150.97673837472934,
11.481,148.6,0.521,49.9,1.4749999999999996,0.521,181.6,49.9,,,,,150.77284049578432,
11.501,148.5,0.526,49.9,1.4949999999999992,0.526,181.5,49.9,,,,,150.57698403239326,
11.522,148.5,0.53,49.9,1.516,0.53,181.5,49.9,,,,,150.41859959498896,
11.542,148.4,0.532,49.9,1.5359999999999996,0.532,181.4,49.9,,,,,150.33884095405634,
11.563,148.4,0.536,49.9,1.5570000000000004,0.536,181.4,49.9,,,,,150.1781908277301,
11.582,148.3,0.541,50.0,1.5760000000000005,0.541,181.3,50.0,,,,,149.98616907394415,
11.599,148.3,0.542,50.1,1.593,0.542,181.3,50.1,,,,,149.95625418660188,
11.624,148.2,0.547,50.0,1.6180000000000003,0.547,181.2,50.0,,,,,149.73965289718322,
11.641,148.1,0.549,50.0,1.6349999999999998,0.549,181.1,50.0,,,,,149.65672560862225,
11.66,148.1,0.55,49.8,1.654,0.55,181.1,49.8,,,,,149.59292028490898,
11.681,148.1,0.554,49.7,1.674999999999999,0.554,181.1,49.7,,,,,149.41420815079695,
11.702,148.0,0.556,49.8,1.6959999999999997,0.556,181.0,49.8,,,,,149.3410598380072,
11.721,148.0,0.56,49.8,1.7149999999999999,0.56,181.0,49.8,,,,,149.17126479930442,
11.742,147.9,0.563,49.9,1.7360000000000007,0.563,180.9,49.9,,,,,149.05429452445185,
11.762,147.9,0.565,49.9,1.7560000000000002,0.565,180.9,49.9,,,,,148.9683052389839,
11.78,147.9,0.566,49.9,1.7739999999999991,0.566,180.9,49.9,,,,,148.92516899069233,
11.801,147.8,0.571,49.8,1.795,0.571,180.8,49.8,,,,,148.69654013720262,
11.82,147.8,0.572,49.8,1.814,0.572,180.8,49.8,,,,,148.65281692750833,
11.84,147.8,0.575,49.9,1.8339999999999996,0.575,180.8,49.9,,,,,148.53269458933934,
11.863,147.7,0.577,49.9,1.8569999999999993,0.577,180.7,49.9,,,,,148.44443961494946,
11.88,147.7,0.578,49.8,1.8740000000000006,0.578,180.7,49.8,,,,,148.38849519153592,
11.903,147.7,0.58,49.8,1.8970000000000002,0.58,180.7,49.8,,,,,148.29963271657115,
11.915,147.7,0.581,49.8,1.908999999999999,0.581,180.7,49.8,,,,,148.25505987353114,
11.938,147.6,0.582,49.8,1.9320000000000004,0.582,180.6,49.8,,,,,148.21039262678607,
11.96,147.6,0.585,49.8,1.9540000000000006,0.585,180.6,49.8,,,,,148.0758244643203,
11.978,147.6,0.585,49.7,1.9719999999999995,0.585,180.6,49.7,,,,,148.06400496565072,
12.0,147.6,0.587,49.7,1.9939999999999998,0.587,180.6,49.7,,,,,147.9737797604704,
12.018,147.6,0.588,49.8,2.0120000000000005,0.588,180.6,49.8,,,,,147.94040666850884,
12.042,147.6,0.588,49.8,2.0359999999999996,0.588,180.6,49.8,,,,,147.94040666850884,
12.062,147.6,0.588,49.8,2.055999999999999,0.588,180.6,49.8,,,,,147.94040666850884,
12.079,147.5,0.591,49.8,2.0730000000000004,0.591,180.5,49.8,,,,,147.80413923935163,
12.098,147.5,0.591,49.9,2.0920000000000005,0.591,180.5,49.9,,,,,147.81608157925132,
12.117,147.5,0.591,49.8,2.1110000000000007,0.591,180.5,49.8,,,,,147.80413923935163,
12.141,147.5,0.593,49.8,2.135,0.593,180.5,49.8,,,,,147.71282226805477,
12.161,147.5,0.592,49.7,,,,,2.1549999999999994,0.592,180.5,49.7,,146.75594955526753
12.182,147.5,0.592,49.7,,,,,2.176,0.592,180.5,49.7,,146.75594955526753
12.202,147.5,0.592,49.7,,,,,2.1959999999999997,0.592,180.5,49.7,,146.75594955526753
12.222,147.5,0.592,49.7,,,,,2.2159999999999993,0.592,180.5,49.7,,146.75594955526753
12.242,147.5,0.592,49.7,,,,,2.2360000000000007,0.592,180.5,49.7,,146.75594955526753
12.259,147.5,0.591,49.7,,,,,2.253,0.591,180.5,49.7,,146.80459676011895
12.277,147.5,0.589,49.6,,,,,2.270999999999999,0.589,180.5,49.6,,146.891036835941
12.301,147.5,0.588,49.5,,,,,2.295,0.588,180.5,49.5,,146.9288640463705
12.321,147.5,0.587,49.5,,,,,2.3149999999999995,0.587,180.5,49.5,,146.97716043896037
12.341,147.5,0.587,49.4,,,,,2.334999999999999,0.587,180.5,49.4,,146.96662987043993
12.36,147.5,0.588,49.4,,,,,2.353999999999999,0.588,180.5,49.4,,146.91831743234283
12.379,147.5,0.587,49.3,,,,,2.3729999999999993,0.587,180.5,49.3,,146.9561015503639
12.402,147.5,0.585,49.3,,,,,2.395999999999999,0.585,180.5,49.3,,147.0524713401155
12.418,147.5,0.582,49.2,,,,,2.411999999999999,0.582,180.5,49.2,,147.18586223700487
12.44,147.5,0.582,49.1,,,,,2.4339999999999993,0.582,180.5,49.1,,147.17541864135393
12.46,147.5,0.577,49.0,,,,,2.4540000000000006,0.577,180.5,49.0,,147.40303136201692
12.48,147.5,0.577,48.8,,,,,2.474,0.577,180.5,48.8,,147.38231586800953
12.501,147.5,0.576,48.7,,,,,2.494999999999999,0.576,180.5,48.7,,147.41933326631104
12.518,147.5,0.574,48.5,,,,,2.5120000000000005,0.574,180.5,48.5,,147.49318390383377
12.542,147.5,0.571,48.4,,,,,2.5359999999999996,0.571,180.5,48.4,,147.62399542900437
12.558,147.5,0.569,48.3,,,,,2.5519999999999996,0.569,180.5,48.3,,147.7073737951763
12.579,147.5,0.567,48.1,,,,,2.5730000000000004,0.567,180.5,48.1,,147.78025525994747
12.6,147.5,0.566,48.0,,,,,2.5939999999999994,0.566,180.5,48.0,,147.81660391279289
12.612,147.5,0.564,47.8,,,,,2.606,0.564,180.5,47.8,,147.88911705940342
12.64,147.5,0.561,47.6,,,,,2.6340000000000003,0.561,180.5,47.6,,148.00749704650642
12.658,147.5,0.559,47.5,,,,,2.6519999999999992,0.559,180.5,47.5,,148.08939606704163
12.681,147.5,0.556,47.3,,,,,2.674999999999999,0.556,180.5,47.3,,148.2066585221635
12.699,147.5,0.554,47.2,,,,,2.6929999999999996,0.554,180.5,47.2,,148.28778353042148
12.716,147.5,0.553,47.0,,,,,2.709999999999999,0.553,180.5,47.0,,148.3133299261708
12.738,147.5,0.549,46.8,,,,,2.7319999999999993,0.549,180.5,46.8,,148.47441706985273
12.759,147.5,0.548,46.7,,,,,2.753,0.548,180.5,46.7,,148.50956929845785
12.78,147.5,0.544,46.5,,,,,2.773999999999999,0.544,180.5,46.5,,148.66910841758528
12.799,147.6,0.538,46.3,,,,,2.7929999999999993,0.538,180.6,46.3,,148.9157159387003
12.82,147.6,0.538,46.2,,,,,2.814,0.538,180.6,46.2,,148.9060435502563
12.84,147.6,0.534,46.1,,,,,2.8339999999999996,0.534,180.6,46.1,,149.07202165088307
12.858,147.6,0.53,46.0,,,,,2.8520000000000003,0.53,180.6,46.0,,149.23659875090792
12.878,147.7,0.526,45.9,,,,,2.872,0.526,180.7,45.9,,149.39977485033086
12.899,147.7,0.523,45.9,,,,,2.892999999999999,0.523,180.7,45.9,,149.52830476308802
12.918,147.7,0.52,45.8,,,,,2.911999999999999,0.52,180.7,45.8,,149.646598567938
12.937,147.8,0.514,45.7,,,,,2.930999999999999,0.514,180.8,45.7,,149.8901709505919
12.96,147.8,0.51,45.5,,,,,2.9540000000000006,0.51,180.8,45.5,,150.03846924200343
12.98,147.9,0.505,45.4,,,,,2.974,0.505,180.9,45.4,,150.2357450796441
13.0,147.9,0.5,45.3,,,,,2.9939999999999998,0.5,180.9,45.3,,150.43079047532615
13.018,148.0,0.497,45.3,,,,,3.0120000000000005,0.497,181.0,45.3,,150.5521425933304
13.041,148.0,0.493,45.3,,,,,3.035,0.493,181.0,45.3,,150.71260525586987
13.058,148.1,0.488,45.2,,,,,3.0519999999999996,0.488,181.1,45.2,,150.90218212447851
13.078,148.2,0.482,45.1,,,,,3.071999999999999,0.482,181.2,45.1,,151.1284797350402
13.097,148.3,0.479,45.0,,,,,3.0909999999999993,0.479,181.3,45.0,,151.2360602096772
13.113,148.4,0.477,45.0,,,,,3.1069999999999993,0.477,181.4,45.0,,151.31313313614385
13.14,148.4,0.473,45.1,,,,,3.1340000000000003,0.473,181.4,45.1,,151.4747327283895
13.158,148.5,0.466,45.1,,,,,3.1519999999999992,0.466,181.5,45.1,,151.73867996624082
13.18,148.6,0.461,45.1,,,,,3.1739999999999995,0.461,181.6,45.1,,151.92434193299275
13.197,148.7,0.454,45.0,,,,,3.190999999999999,0.454,181.7,45.0,,152.1719506175438
13.219,148.8,0.451,44.9,,,,,3.212999999999999,0.451,181.8,44.9,,152.27198978255228
13.238,148.9,0.448,44.8,,,,,3.2319999999999993,0.448,181.9,44.8,,152.37126593667747
13.258,149.0,0.443,44.8,,,,,3.251999999999999,0.443,182.0,44.8,,152.54855326232664
13.279,149.1,0.438,44.8,,,,,3.2729999999999997,0.438,182.1,44.8,,152.72344744250046
13.299,149.2,0.432,44.7,,,,,3.2929999999999993,0.432,182.2,44.7,,152.92222366867097
13.319,149.3,0.427,44.7,,,,,3.3130000000000006,0.427,182.3,44.7,,153.09193315633516
13.34,149.4,0.421,44.5,,,,,3.3339999999999996,0.421,182.4,44.5,,153.276909659976
13.359,149.5,0.417,44.6,,,,,3.3529999999999998,0.417,182.5,44.6,,153.41647778827985
13.377,149.6,0.413,44.5,,,,,3.3710000000000004,0.413,182.6,44.5,,153.53912898645305
13.398,149.7,0.407,44.5,,,,,3.3919999999999995,0.407,182.7,44.5,,153.73177299691224
13.418,149.9,0.401,44.5,,,,,3.411999999999999,0.401,182.9,44.5,,153.92097087788687
13.439,150.0,0.398,44.6,,,,,3.433,0.398,183.0,44.6,,154.02166531369326
13.458,150.1,0.391,44.4,,,,,3.452,0.391,183.1,44.4,,154.22136938710952
13.479,150.3,0.387,44.4,,,,,3.472999999999999,0.387,183.3,44.4,,154.34182194064735
13.5,150.4,0.383,44.4,,,,,3.4939999999999998,0.383,183.4,44.4,,154.460742881081
13.514,150.5,0.377,44.5,,,,,3.507999999999999,0.377,183.5,44.5,,154.64330110694038
13.537,150.7,0.372,44.4,,,,,3.5310000000000006,0.372,183.7,44.4,,154.77987808720476
13.556,150.8,0.368,44.3,,,,,3.549999999999999,0.368,183.8,44.3,,154.8861535467277
13.578,150.9,0.362,44.2,,,,,3.571999999999999,0.362,183.9,44.2,,155.04634072185783
13.598,151.1,0.359,44.0,,,,,3.5920000000000005,0.359,184.1,44.0,,155.11508805034165
13.619,151.3,0.354,43.9,,,,,3.6129999999999995,0.354,184.3,43.9,,155.243750905928
13.636,151.5,0.349,44.1,,,,,3.629999999999999,0.349,184.5,44.1,,155.38994753961973
13.66,151.6,0.345,44.3,,,,,3.654,0.345,184.6,44.3,,155.50756972652354
13.677,151.8,0.339,44.4,,,,,3.6709999999999994,0.339,184.8,44.4,,155.66778676097175
13.697,152.0,0.335,44.4,,,,,3.690999999999999,0.335,185.0,44.4,,155.7683283441546
13.717,152.1,0.33,44.3,,,,,3.7110000000000003,0.33,185.1,44.3,,155.88555928971047
13.738,152.2,0.327,44.1,,,,,3.7319999999999993,0.327,185.2,44.1,,155.94609121862132
13.757,152.4,0.322,43.8,,,,,3.7509999999999994,0.322,185.4,43.8,,156.04756148254214
13.777,152.5,0.318,43.7,,,,,3.770999999999999,0.318,185.5,43.7,,156.13589263646418
13.799,152.7,0.312,43.6,,,,,3.7929999999999993,0.312,185.7,43.6,,156.2687554701788
13.817,153.0,0.307,43.7,,,,,3.811,0.307,186.0,43.7,,156.38781938604978
13.837,153.2,0.305,43.8,,,,,3.8309999999999995,0.305,186.2,43.8,,156.43825738811105
13.857,153.4,0.301,44.0,,,,,3.850999999999999,0.301,186.4,44.0,,156.53779888165195
13.877,153.6,0.297,44.2,,,,,3.8710000000000004,0.297,186.6,44.2,,156.63556102775058
13.898,153.7,0.293,44.2,,,,,3.8919999999999995,0.293,186.7,44.2,,156.72014903739694
13.918,153.9,0.288,44.2,,,,,3.911999999999999,0.288,186.9,44.2,,156.82373021852706
13.937,154.1,0.283,44.1,,,,,3.930999999999999,0.283,187.1,44.1,,156.91938468741577
13.959,154.3,0.28,44.0,,,,,3.9529999999999994,0.28,187.3,44.0,,156.97351375370226
13.979,154.5,0.277,43.9,,,,,3.972999999999999,0.277,187.5,43.9,,157.02687980910548
13.996,154.7,0.273,44.0,,,,,3.99,0.273,187.7,44.0,,157.1093709141223
14.017,154.9,0.268,44.0,,,,,4.010999999999999,0.268,187.9,44.0,,157.20353996842334
14.037,155.1,0.266,44.0,,,,,4.031000000000001,0.266,188.1,44.0,,157.24053750941067
14.057,155.3,0.262,44.1,,,,,4.051,0.262,188.3,44.1,,157.31857824422679
14.072,155.6,0.258,44.0,,,,,4.065999999999999,0.258,188.6,44.0,,157.38469864059934
14.099,155.8,0.255,44.0,,,,,4.093,0.255,188.8,44.0,,157.43717958878136
14.119,156.0,0.252,44.2,,,,,4.1129999999999995,0.252,189.0,44.2,,157.49886906823133
14.139,156.2,0.247,44.1,,,,,4.132999999999999,0.247,189.2,44.1,,157.5778705279579
14.155,156.4,0.246,44.2,,,,,4.148999999999999,0.246,189.4,44.2,,157.5993307566529
14.176,156.6,0.241,44.3,,,,,4.17,0.241,189.6,44.3,,157.68527827422128
14.197,156.8,0.239,44.2,,,,,4.190999999999999,0.239,189.8,44.2,,157.71218053504626
14.217,157.0,0.238,44.2,,,,,4.211,0.238,190.0,44.2,,157.72791902868354
14.237,157.2,0.236,44.3,,,,,4.231,0.236,190.2,44.3,,157.7638905148715
14.257,157.4,0.231,44.3,,,,,4.2509999999999994,0.231,190.4,44.3,,157.84010961004637
14.278,157.6,0.228,44.4,,,,,4.272,0.228,190.6,44.4,,157.88934791808012
14.298,157.7,0.227,44.4,,,,,4.292,0.227,190.7,44.4,,157.90400133669377
14.316,157.9,0.223,44.3,,,,,4.3100000000000005,0.223,190.9,44.3,,157.95708241973742
14.335,158.1,0.223,44.1,,,,,4.329000000000001,0.223,191.1,44.1,,157.94793849862904
14.355,158.3,0.22,44.1,,,,,4.349,0.22,191.3,44.1,,157.99032009929286
14.376,158.4,0.219,44.2,,,,,4.369999999999999,0.219,191.4,44.2,,158.00876250217914
14.397,158.6,0.217,44.3,,,,,4.391,0.217,191.6,44.3,,158.04079154260708
14.418,158.8,0.216,44.4,,,,,4.411999999999999,0.216,191.8,44.4,,158.05887103738903
