time,length,pressure,force,time_contraction,pressure_contraction,length_contraction,force_contraction,time_extension,pressure_extension,length_extension,force_extension,estimated_contraction_length,estimated_extension_length
10.008,195.7,0.422,94.8,0.0,0.422,229.7,94.8,,,,,192.04615166848905,
10.02,195.7,0.422,95.1,0.012000000000000455,0.422,229.7,95.1,,,,,192.06846148187083,
10.034,195.7,0.422,95.2,0.026000000000001577,0.422,229.7,95.2,,,,,192.0758947389368,
10.046,195.7,0.422,95.4,0.038000000000000256,0.422,229.7,95.4,,,,,192.09075623197683,
10.058,195.6,0.423,95.6,0.05000000000000071,0.423,229.6,95.6,,,,,192.07252316922572,
10.07,195.6,0.424,95.8,0.062000000000001165,0.424,229.6,95.8,,,,,192.05424225430696,
10.073,195.6,0.427,96.1,0.06500000000000128,0.427,229.6,96.1,,,,,191.9765470357922,
10.096,195.6,0.429,96.5,0.08800000000000097,0.429,229.6,96.5,,,,,191.93944629218728,
10.104,195.6,0.428,97.4,0.09600000000000009,0.428,229.6,97.4,,,,,192.04088505129258,
10.115,195.6,0.433,98.4,0.1070000000000011,0.433,229.6,98.4,,,,,191.9485272792227,
10.126,195.6,0.434,99.1,0.11800000000000033,0.434,229.6,99.1,,,,,191.9680521058972,
10.138,195.6,0.437,100.3,0.13000000000000078,0.437,229.6,100.3,,,,,191.95822769666182,
10.151,195.5,0.439,101.2,0.14300000000000068,0.439,229.5,101.2,,,,,191.95946260291825,
10.163,195.4,0.44,102.6,0.15500000000000114,0.44,229.4,102.6,,,,,192.03329216650468,
10.179,195.3,0.444,103.4,0.17100000000000115,0.444,229.3,103.4,,,,,191.9592253086327,
10.2,195.1,0.448,103.8,0.19200000000000017,0.448,229.1,103.8,,,,,191.85302791380505,
10.221,194.9,0.451,104.9,0.21300000000000097,0.451,228.9,104.9,,,,,191.83565716235722,
10.24,194.6,0.451,105.2,0.2320000000000011,0.451,228.6,105.2,,,,,191.85932061053666,
10.258,194.2,0.455,104.9,0.25,0.455,228.2,104.9,,,,,191.69580349807515,
10.275,193.9,0.459,103.6,0.26700000000000124,0.459,227.9,103.6,,,,,191.44898244090132,
10.298,193.5,0.465,102.5,0.2900000000000009,0.465,227.5,102.5,,,,,191.14026338520657,
10.318,193.2,0.467,102.8,0.3100000000000005,0.467,227.2,102.8,,,,,191.0908260527554,
10.339,192.9,0.467,103.2,0.3310000000000013,0.467,226.9,103.2,,,,,191.1238833988559,
10.359,192.6,0.475,103.0,0.35100000000000087,0.475,226.6,103.0,,,,,190.8061535421431,
10.379,192.3,0.478,103.4,0.37100000000000044,0.478,226.3,103.4,,,,,190.72509616447834,
10.4,192.0,0.481,103.4,0.39200000000000124,0.481,226.0,103.4,,,,,190.60917002278674,
10.416,191.8,0.486,102.8,0.40800000000000125,0.486,225.8,102.8,,,,,190.36141136984534,
10.437,191.5,0.49,102.9,0.42900000000000027,0.49,225.5,102.9,,,,,190.21078050682587,
10.457,191.3,0.493,103.9,0.4490000000000016,0.493,225.3,103.9,,,,,190.1781093154155,
10.478,191.0,0.498,103.9,0.47000000000000064,0.498,225.0,103.9,,,,,189.97529699819287,
10.498,190.7,0.503,104.0,0.4900000000000002,0.503,224.7,104.0,,,,,189.77833534422936,
10.509,190.4,0.509,104.0,0.5010000000000012,0.509,224.4,104.0,,,,,189.5271061750406,
10.54,190.1,0.512,104.1,0.532,0.512,224.1,104.1,,,,,189.40899023560166,
10.559,189.7,0.516,104.3,0.5510000000000002,0.516,223.7,104.3,,,,,189.2561195003009,
10.58,189.4,0.521,104.2,0.572000000000001,0.521,223.4,104.2,,,,,189.02976494567986,
10.597,189.0,0.523,103.8,0.5890000000000004,0.523,223.0,103.8,,,,,188.90427139463517,
10.617,188.7,0.531,103.4,0.6090000000000018,0.531,222.7,103.4,,,,,188.50917718155986,
10.637,188.4,0.537,103.3,0.6290000000000013,0.537,222.4,103.3,,,,,188.226135148992,
10.658,188.1,0.539,103.8,0.6500000000000004,0.539,222.1,103.8,,,,,188.1829586057243,
10.679,187.8,0.543,103.8,0.6710000000000012,0.543,221.8,103.8,,,,,187.99756201665662,
10.699,187.5,0.55,103.5,0.6910000000000007,0.55,221.5,103.5,,,,,187.63815364816827,
10.719,187.2,0.554,103.4,0.7110000000000003,0.554,221.2,103.4,,,,,187.43680760085357,
10.74,187.0,0.558,103.8,0.7320000000000011,0.558,221.0,103.8,,,,,187.2842686617227,
10.757,186.7,0.564,103.8,0.7490000000000006,0.564,220.7,103.8,,,,,186.99096860260116,
10.777,186.4,0.569,103.9,0.7690000000000001,0.569,220.4,103.9,,,,,186.7534990640235,
10.797,186.2,0.574,104.1,0.7890000000000015,0.574,220.2,104.1,,,,,186.52360927776687,
10.818,185.9,0.578,104.3,0.8100000000000005,0.578,219.9,104.3,,,,,186.34196663800395,
10.838,185.6,0.585,104.5,0.8300000000000001,0.585,219.6,104.5,,,,,186.0038783657879,
10.858,185.3,0.588,104.2,0.8500000000000014,0.588,219.3,104.2,,,,,185.81549508029346,
10.875,185.0,0.594,104.1,0.8670000000000009,0.594,219.0,104.1,,,,,185.48893919413246,
10.892,184.8,0.598,104.0,0.8840000000000003,0.598,218.8,104.0,,,,,185.2648745028176,
10.917,184.5,0.603,103.9,0.9090000000000007,0.603,218.5,103.9,,,,,184.9844892646177,
10.924,184.3,0.609,104.0,0.9160000000000004,0.609,218.3,104.0,,,,,184.6683914364283,
10.959,184.0,0.615,103.9,0.9510000000000005,0.615,218.0,103.9,,,,,184.32516096113144,
10.976,183.8,0.622,104.2,0.9680000000000017,0.622,217.8,104.2,,,,,183.96681233932068,
10.999,183.5,0.625,104.8,0.9910000000000014,0.625,217.5,104.8,,,,,183.86637218962838,
11.018,183.2,0.629,104.3,1.0100000000000016,0.629,217.2,104.3,,,,,183.5797266192633,
11.038,183.0,0.632,104.2,1.0300000000000011,0.632,217.0,104.2,,,,,183.39520596626755,
11.059,182.7,0.64,103.9,1.0510000000000002,0.64,216.7,103.9,,,,,182.89295704821842,
11.075,182.5,0.646,104.2,1.0670000000000002,0.646,216.5,104.2,,,,,182.57366979826514,
11.096,182.3,0.648,103.9,1.088000000000001,0.648,216.3,103.9,,,,,182.41792610301428,
11.116,182.0,0.653,103.9,1.1080000000000005,0.653,216.0,103.9,,,,,182.1169136938917,
11.137,181.9,0.657,103.6,1.1290000000000013,0.657,215.9,103.6,,,,,181.83687641937072,
11.157,181.7,0.662,103.4,1.149000000000001,0.662,215.7,103.4,,,,,181.50498795106827,
11.178,181.5,0.666,103.5,1.1700000000000017,0.666,215.5,103.5,,,,,181.26942097036135,
11.199,181.4,0.671,104.1,1.1910000000000007,0.671,215.4,104.1,,,,,181.0322616389783,
11.219,181.2,0.676,104.8,1.2110000000000003,0.676,215.2,104.8,,,,,180.80586275649833,
11.235,181.0,0.681,104.9,1.2270000000000003,0.681,215.0,104.9,,,,,180.5008838681007,
11.255,180.7,0.688,104.9,1.2470000000000017,0.688,214.7,104.9,,,,,180.0508067311892,
11.277,180.5,0.691,104.8,1.2690000000000001,0.691,214.5,104.8,,,,,179.84299157420483,
11.297,180.3,0.695,104.3,1.2890000000000015,0.695,214.3,104.3,,,,,179.5158365432432,
11.314,180.1,0.698,103.9,1.306000000000001,0.698,214.1,103.9,,,,,179.26525349128843,
11.332,179.9,0.703,103.6,1.3240000000000016,0.703,213.9,103.6,,,,,178.89266550386353,
11.355,179.8,0.708,103.6,1.3470000000000013,0.708,213.8,103.6,,,,,178.55648707927492,
11.372,179.6,0.712,103.6,1.3640000000000008,0.712,213.6,103.6,,,,,178.28526356327603,
11.396,179.5,0.715,103.8,1.3880000000000017,0.715,213.5,103.8,,,,,178.10762921449006,
11.412,179.4,0.719,104.0,1.4040000000000017,0.719,213.4,104.0,,,,,177.86030708015554,
11.438,179.3,0.724,104.1,1.4300000000000015,0.724,213.3,104.1,,,,,177.5281631395096,
11.458,179.1,0.728,104.3,1.450000000000001,0.728,213.1,104.3,,,,,177.27691105346724,
11.477,179.0,0.729,104.6,1.4690000000000012,0.729,213.0,104.6,,,,,177.24844201377448,
11.497,178.8,0.735,104.3,1.4890000000000008,0.735,212.8,104.3,,,,,176.78424809328692,
11.518,178.7,0.739,104.2,1.5100000000000016,0.739,212.7,104.2,,,,,176.48587780653727,
11.534,178.5,0.741,104.1,1.5260000000000016,0.741,212.5,104.1,,,,,176.32881468841853,
11.555,178.4,0.745,104.0,1.5470000000000006,0.745,212.4,104.0,,,,,176.02710058570867,
11.576,178.3,0.75,103.7,1.5680000000000014,0.75,212.3,103.7,,,,,175.62183203511705,
11.596,178.2,0.752,103.7,1.588000000000001,0.752,212.2,103.7,,,,,175.47587285005443,
11.617,178.1,0.754,103.7,1.6090000000000018,0.754,212.1,103.7,,,,,175.3294068258078,
11.637,178.0,0.758,103.7,1.6290000000000013,0.758,212.0,103.7,,,,,175.03495425976254,
11.657,177.9,0.761,103.6,1.649000000000001,0.761,211.9,103.6,,,,,174.79824282218388,
11.678,177.8,0.764,103.7,1.6700000000000017,0.764,211.8,103.7,,,,,174.58947411681464,
11.694,177.7,0.767,103.9,1.6860000000000017,0.767,211.7,103.9,,,,,174.39435821962905,
11.715,177.6,0.768,104.1,1.7070000000000007,0.768,211.6,104.1,,,,,174.34870152962642,
11.735,177.5,0.772,104.2,1.7270000000000003,0.772,211.5,104.2,,,,,174.06226388552417,
11.754,177.4,0.774,104.0,1.7460000000000004,0.774,211.4,104.0,,,,,173.8813192026695,
11.777,177.3,0.776,103.9,1.7690000000000001,0.776,211.3,103.9,,,,,173.71454891536445,
11.795,177.2,0.779,103.8,1.7870000000000008,0.779,211.2,103.8,,,,,173.47074183894358,
11.814,177.2,0.781,103.5,1.806000000000001,0.781,211.2,103.5,,,,,173.27256829509747,
11.836,177.1,0.783,103.4,1.8280000000000012,0.783,211.1,103.4,,,,,173.1036521043871,
11.855,177.0,0.785,103.4,1.8470000000000013,0.785,211.0,103.4,,,,,172.94920174416205,
11.874,177.0,0.785,103.3,1.8660000000000014,0.785,211.0,103.3,,,,,172.93414184837775,
11.895,176.9,0.789,103.3,1.8870000000000005,0.789,210.9,103.3,,,,,172.62363505795804,
11.916,176.9,0.79,103.3,1.9080000000000013,0.79,210.9,103.3,,,,,172.54569158586312,
11.935,176.8,0.791,103.4,1.9270000000000014,0.791,210.8,103.4,,,,,172.48280962838294,
11.956,176.8,0.792,103.4,1.9480000000000004,0.792,210.8,103.4,,,,,172.40463412480042,
11.977,176.8,0.793,103.5,1.9690000000000012,0.793,210.8,103.5,,,,,172.3415612383441,
11.997,176.7,0.796,103.6,1.9890000000000008,0.796,210.7,103.6,,,,,172.12125032128384,
12.014,176.7,0.796,103.7,2.0060000000000002,0.796,210.7,103.7,,,,,172.13654046512463,
12.034,176.6,0.797,103.6,2.0260000000000016,0.797,210.6,103.6,,,,,172.04248404493012,
12.054,176.6,0.798,103.4,2.046000000000001,0.798,210.6,103.4,,,,,171.9329201975893,
12.075,176.5,0.8,103.3,2.067,0.8,210.5,103.3,,,,,171.75928782613394,
12.095,176.5,0.798,103.3,2.0870000000000015,0.798,210.5,103.3,,,,,171.9175822564478,
12.116,176.5,0.801,103.1,2.1080000000000005,0.801,210.5,103.1,,,,,171.64914131428165,
12.137,176.5,0.801,103.1,2.1290000000000013,0.801,210.5,103.1,,,,,171.64914131428165,
12.153,176.5,0.801,103.1,2.1450000000000014,0.801,210.5,103.1,,,,,171.64914131428165,
12.174,176.5,0.802,103.2,2.1660000000000004,0.802,210.5,103.2,,,,,171.58506138937966,
12.194,176.5,0.802,103.3,,,,,2.1860000000000017,0.802,210.5,103.3,,168.6041404546027
12.214,176.5,0.801,103.3,,,,,2.2060000000000013,0.801,210.5,103.3,,168.6916236184373
12.236,176.4,0.801,103.3,,,,,2.2280000000000015,0.801,210.4,103.3,,168.6916236184373
12.257,176.4,0.801,103.1,,,,,2.2490000000000006,0.801,210.4,103.1,,168.6640241004768
12.276,176.4,0.802,103.0,,,,,2.2680000000000007,0.802,210.4,103.0,,168.56269157912192
12.296,176.4,0.801,103.0,,,,,2.2880000000000003,0.801,210.4,103.0,,168.650224924689
12.313,176.4,0.801,103.0,,,,,2.3050000000000015,0.801,210.4,103.0,,168.650224924689
12.333,176.4,0.8,103.0,,,,,2.325000000000001,0.8,210.4,103.0,,168.73762756232463
12.353,176.4,0.8,102.8,,,,,2.3450000000000006,0.8,210.4,102.8,,168.71006383162228
12.375,176.4,0.798,102.6,,,,,2.367000000000001,0.798,210.4,102.6,,168.85704862553
12.394,176.4,0.797,102.4,,,,,2.386000000000001,0.797,210.4,102.4,,168.91666579147028
12.415,176.4,0.796,102.2,,,,,2.407,0.796,210.4,102.2,,168.97622071363563
12.435,176.4,0.796,102.0,,,,,2.4270000000000014,0.796,210.4,102.0,,168.94879702160594
12.456,176.4,0.795,101.7,,,,,2.4480000000000004,0.795,210.4,101.7,,168.9946309516762
12.473,176.5,0.792,101.5,,,,,2.4650000000000016,0.792,210.5,101.5,,169.22746037441854
12.493,176.5,0.79,101.1,,,,,2.485000000000001,0.79,210.5,101.1,,169.34585052755676
12.514,176.5,0.789,100.7,,,,,2.5060000000000002,0.789,210.5,100.7,,169.37777283652116
12.534,176.5,0.786,100.4,,,,,2.5260000000000016,0.786,210.5,100.4,,169.59542167819538
12.554,176.5,0.785,100.0,,,,,2.546000000000001,0.785,210.5,100.0,,169.6272167683087
12.575,176.5,0.784,99.5,,,,,2.567,0.784,210.5,99.5,,169.64551998434996
12.595,176.5,0.781,99.1,,,,,2.5870000000000015,0.781,210.5,99.1,,169.84862582522265
12.616,176.5,0.779,98.6,,,,,2.6080000000000005,0.779,210.5,98.6,,169.95230256521086
12.636,176.5,0.776,98.1,,,,,2.628,0.776,210.5,98.1,,170.14088602047576
12.653,176.5,0.774,97.6,,,,,2.6450000000000014,0.774,210.5,97.6,,170.24402784688505
12.674,176.5,0.772,97.0,,,,,2.6660000000000004,0.772,210.5,97.0,,170.3337003483166
12.695,176.5,0.769,96.4,,,,,2.687000000000001,0.769,210.5,96.4,,170.50772015837683
12.719,176.6,0.767,95.9,,,,,2.7110000000000003,0.767,210.6,95.9,,170.61021930116507
12.736,176.6,0.764,95.5,,,,,2.7280000000000015,0.764,210.6,95.5,,170.80965901898182
12.755,176.7,0.762,95.1,,,,,2.7470000000000017,0.762,210.7,95.1,,170.92470355939648
12.775,176.7,0.758,94.9,,,,,2.7670000000000012,0.758,210.7,94.9,,171.23232802161309
12.792,176.8,0.757,94.7,,,,,2.7840000000000007,0.757,210.8,94.7,,171.28940292205374
12.812,176.9,0.753,94.6,,,,,2.8040000000000003,0.753,210.9,94.6,,171.60781446484535
12.834,177.0,0.752,94.6,,,,,2.8260000000000005,0.752,211.0,94.6,,171.6903482102815
12.846,177.0,0.75,94.6,,,,,2.838000000000001,0.75,211.0,94.6,,171.85502357735947
12.872,177.1,0.747,94.6,,,,,2.8640000000000008,0.747,211.1,94.6,,172.1010563184904
12.895,177.2,0.743,94.7,,,,,2.8870000000000005,0.743,211.2,94.7,,172.44006639914036
12.915,177.2,0.742,94.5,,,,,2.907,0.742,211.2,94.5,,172.49571750760254
12.935,177.3,0.739,94.3,,,,,2.9270000000000014,0.739,211.3,94.3,,172.71320652834052
12.955,177.4,0.731,93.9,,,,,2.947000000000001,0.731,211.4,93.9,,173.30520494909752
12.972,177.5,0.728,93.4,,,,,2.9640000000000004,0.728,211.5,93.4,,173.4814309090775
12.993,177.7,0.725,93.1,,,,,2.985000000000001,0.725,211.7,93.1,,173.68196969754806
13.013,177.9,0.721,93.1,,,,,3.005000000000001,0.721,211.9,93.1,,173.99768477803042
13.034,178.1,0.717,93.5,,,,,3.0260000000000016,0.717,212.1,93.5,,174.3607332506843
13.055,178.3,0.712,93.9,,,,,3.0470000000000006,0.712,212.3,93.9,,174.79858386422708
13.075,178.4,0.707,93.9,,,,,3.067,0.707,212.4,93.9,,175.18373583968904
13.095,178.6,0.703,94.0,,,,,3.0870000000000015,0.703,212.6,94.0,,175.50162920280968
13.112,178.7,0.698,94.0,,,,,3.104000000000001,0.698,212.7,94.0,,175.8808156851348
13.132,178.9,0.695,94.1,,,,,3.1240000000000006,0.695,212.9,94.1,,176.11875017571126
13.152,179.0,0.69,93.8,,,,,3.144,0.69,213.0,93.8,,176.4569034905274
13.173,179.2,0.684,93.5,,,,,3.165000000000001,0.684,213.2,93.5,,176.86612402931922
13.194,179.3,0.679,93.1,,,,,3.1860000000000017,0.679,213.3,93.1,,177.18642926129957
13.214,179.5,0.674,92.9,,,,,3.2060000000000013,0.674,213.5,92.9,,177.52741203406828
13.235,179.7,0.67,92.9,,,,,3.2270000000000003,0.67,213.7,92.9,,177.8165965144851
13.251,179.9,0.664,92.8,,,,,3.2430000000000003,0.664,213.9,92.8,,178.2349841109163
13.271,180.2,0.659,92.7,,,,,3.2630000000000017,0.659,214.2,92.7,,178.57830232002203
13.288,180.4,0.655,92.9,,,,,3.280000000000001,0.655,214.4,92.9,,178.88241243581425
13.313,180.7,0.649,93.4,,,,,3.3050000000000015,0.649,214.7,93.4,,179.35659492452476
13.333,180.9,0.644,93.7,,,,,3.325000000000001,0.644,214.9,93.7,,179.734400271473
13.354,181.1,0.64,93.7,,,,,3.346,0.64,215.1,93.7,,180.00736452830026
13.374,181.3,0.635,93.7,,,,,3.3660000000000014,0.635,215.3,93.7,,180.34562892087632
13.394,181.4,0.631,93.3,,,,,3.386000000000001,0.631,215.4,93.3,,180.57021403473325
13.414,181.6,0.625,92.9,,,,,3.4060000000000006,0.625,215.6,92.9,,180.92581642473323
13.43,181.8,0.621,92.4,,,,,3.4220000000000006,0.621,215.8,92.4,,181.13564296478026
13.451,182.0,0.616,92.2,,,,,3.4430000000000014,0.616,216.0,92.2,,181.44125169442412
13.472,182.3,0.611,92.5,,,,,3.4640000000000004,0.611,216.3,92.5,,181.79682387353918
13.492,182.6,0.604,92.6,,,,,3.4840000000000018,0.604,216.6,92.6,,182.25481353126335
13.512,182.8,0.602,92.5,,,,,3.5040000000000013,0.602,216.8,92.5,,182.37103880966836
13.533,183.1,0.594,92.5,,,,,3.5250000000000004,0.594,217.1,92.5,,182.87256394688796
13.554,183.4,0.591,92.7,,,,,3.546000000000001,0.591,217.4,92.7,,183.07897084335156
13.574,183.7,0.585,92.8,,,,,3.5660000000000007,0.585,217.7,92.8,,183.45721753861326
13.59,183.9,0.582,93.2,,,,,3.5820000000000007,0.582,217.9,93.2,,183.679840466534
13.611,184.2,0.575,93.4,,,,,3.6030000000000015,0.575,218.2,93.4,,184.11997551618248
13.631,184.4,0.571,93.4,,,,,3.623000000000001,0.571,218.4,93.4,,184.35706511085533
13.652,184.7,0.567,93.3,,,,,3.644,0.567,218.7,93.3,,184.58221609108514
13.672,184.9,0.56,93.3,,,,,3.6640000000000015,0.56,218.9,93.3,,184.9885478950294
13.69,185.2,0.555,93.1,,,,,3.6820000000000004,0.555,219.2,93.1,,185.25557170506866
13.706,185.4,0.554,92.6,,,,,3.6980000000000004,0.554,219.4,92.6,,185.26433674178466
13.72,185.7,0.548,92.3,,,,,3.7120000000000015,0.548,219.7,92.3,,185.57494268232406
13.747,186.0,0.541,92.1,,,,,3.7390000000000008,0.541,220.0,92.1,,185.94624542237779
13.77,186.3,0.536,92.4,,,,,3.7620000000000005,0.536,220.3,92.4,,186.24912096708937
13.788,186.7,0.532,92.7,,,,,3.780000000000001,0.532,220.7,92.7,,186.49426538512196
13.813,187.0,0.53,93.2,,,,,3.8050000000000015,0.53,221.0,93.2,,186.6481990192599
13.829,187.2,0.525,93.4,,,,,3.8210000000000015,0.525,221.2,93.4,,186.93328132840767
13.852,187.5,0.52,93.7,,,,,3.844000000000001,0.52,221.5,93.7,,187.22382522301325
13.873,187.7,0.515,93.4,,,,,3.865,0.515,221.7,93.4,,187.45673011141304
13.894,187.9,0.511,93.0,,,,,3.886000000000001,0.511,221.9,93.0,,187.62680988784112
13.896,188.1,0.508,92.7,,,,,3.8880000000000017,0.508,222.1,92.7,,187.75335264135657
13.931,188.4,0.501,92.7,,,,,3.923,0.501,222.4,92.7,,188.10640461386097
13.949,188.7,0.498,92.1,,,,,3.9410000000000007,0.498,222.7,92.1,,188.20361549826936
13.961,189.0,0.494,92.0,,,,,3.953000000000001,0.494,223.0,92.0,,188.39269572236776
13.993,189.3,0.492,92.4,,,,,3.985000000000001,0.492,223.3,92.4,,188.52514870584395
14.013,189.6,0.488,92.3,,,,,4.005000000000001,0.488,223.6,92.3,,188.71099040973726
14.033,189.9,0.484,92.7,,,,,4.025,0.484,223.9,92.7,,188.93715212906696
14.05,190.2,0.482,93.3,,,,,4.042000000000002,0.482,224.2,93.3,,189.08294834617124
14.07,190.5,0.479,93.6,,,,,4.062000000000001,0.479,224.5,93.6,,189.24967130946757
14.09,190.7,0.473,93.6,,,,,4.082000000000001,0.473,224.7,93.6,,189.52903295843373
14.111,190.9,0.468,93.3,,,,,4.1030000000000015,0.468,224.9,93.3,,189.73366482697384
14.131,191.2,0.466,92.9,,,,,4.123000000000001,0.466,225.2,92.9,,189.79190554176662
14.152,191.4,0.465,92.6,,,,,4.144,0.465,225.4,92.6,,189.8127941464318
14.172,191.6,0.462,92.7,,,,,4.1640000000000015,0.462,225.6,92.7,,189.95616344614652
14.193,191.9,0.457,93.3,,,,,4.1850000000000005,0.457,225.9,93.3,,190.22696972131362
14.21,192.1,0.454,93.2,,,,,4.202000000000002,0.454,226.1,93.2,,190.35080583305654
14.229,192.3,0.451,92.8,,,,,4.221,0.451,226.3,92.8,,190.4498502095706
14.251,192.5,0.45,92.4,,,,,4.243,0.45,226.5,92.4,,190.46166211406455
14.271,192.8,0.448,92.7,,,,,4.263000000000002,0.448,226.8,92.7,,190.57168679464965
14.291,193.0,0.444,93.1,,,,,4.283000000000001,0.444,227.0,93.1,,190.77399747068893
14.311,193.2,0.442,93.0,,,,,4.303000000000001,0.442,227.2,93.0,,190.85090335367676
14.331,193.4,0.438,92.8,,,,,4.323,0.438,227.4,92.8,,191.00334851778985
14.346,193.7,0.437,92.8,,,,,4.338000000000001,0.437,227.7,92.8,,191.0450103552095
14.372,193.8,0.437,93.1,,,,,4.364000000000001,0.437,227.8,93.1,,191.06802392705976
14.388,194.0,0.435,93.5,,,,,4.380000000000001,0.435,228.0,93.5,,191.18141150228257
14.412,194.2,0.433,93.6,,,,,4.404000000000002,0.433,228.2,93.6,,191.27119265459297
