time,length,pressure,force
10.016,192.50,0.208,44.50
10.031,192.50,0.208,44.60
10.039,192.50,0.208,44.70
10.05,192.50,0.209,44.80
10.064,192.50,0.211,44.90
10.079,192.50,0.209,44.90
10.08,192.50,0.209,45.00
10.098,192.50,0.212,45.10
10.116,192.50,0.213,45.30
10.128,192.50,0.216,45.60
10.141,192.50,0.218,46.10
10.152,192.50,0.219,46.80
10.159,192.50,0.222,47.30
10.175,192.50,0.224,47.80
10.185,192.40,0.228,48.50
10.193,192.30,0.23,49.00
10.21,192.20,0.233,49.50
10.22,192.00,0.235,50.00
10.235,191.80,0.238,50.10
10.244,191.60,0.241,50.10
10.255,191.30,0.245,50.00
10.273,191.00,0.246,50.00
10.287,190.70,0.252,49.50
10.314,190.40,0.255,49.30
10.337,190.20,0.257,49.20
10.358,190.00,0.262,49.30
10.377,189.90,0.266,49.50
10.394,189.70,0.268,49.80
10.419,189.50,0.274,49.80
10.429,189.30,0.279,50.10
10.457,189.00,0.283,50.20
10.477,188.80,0.286,50.40
10.49,188.50,0.29,50.30
10.517,188.20,0.295,50.00
10.539,187.90,0.3,49.70
10.557,187.70,0.304,49.70
10.576,187.50,0.307,49.50
10.589,187.40,0.312,49.30
10.616,187.20,0.317,49.60
10.636,187.10,0.322,50.30
10.657,186.90,0.326,50.50
10.674,186.70,0.33,50.50
10.698,186.40,0.335,50.50
10.714,186.20,0.34,50.30
10.735,185.90,0.345,50.00
10.746,185.70,0.35,49.80
10.773,185.60,0.354,49.70
10.795,185.40,0.36,49.70
10.816,185.30,0.365,49.80
10.834,185.20,0.371,50.10
10.857,185.00,0.373,50.40
10.877,184.80,0.379,50.60
10.894,184.60,0.384,50.40
10.912,184.40,0.389,50.20
10.93,184.30,0.395,50.00
10.944,184.20,0.398,49.70
10.977,184.10,0.402,49.80
10.992,184.00,0.406,50.00
11.015,183.90,0.413,50.30
11.034,183.70,0.418,50.50
11.05,183.60,0.422,50.60
11.075,183.40,0.428,50.30
11.088,183.20,0.434,50.00
11.115,183.10,0.439,49.70
11.129,183.00,0.443,49.60
11.156,182.90,0.448,49.50
11.174,182.80,0.453,49.50
11.189,182.70,0.459,49.80
11.215,182.70,0.461,50.10
11.226,182.60,0.466,50.20
11.253,182.40,0.471,50.30
11.269,182.30,0.476,50.20
11.295,182.20,0.478,49.90
11.315,182.10,0.482,49.70
11.336,182.00,0.488,49.60
11.355,181.90,0.493,49.70
11.377,181.80,0.498,49.70
11.394,181.80,0.5,49.70
11.415,181.70,0.504,49.60
11.432,181.70,0.509,49.70
11.451,181.60,0.512,49.80
11.476,181.60,0.515,50.00
11.495,181.50,0.52,50.00
11.517,181.40,0.523,49.90
11.535,181.30,0.527,49.90
11.552,181.30,0.531,49.90
11.574,181.20,0.534,49.80
11.59,181.20,0.538,49.90
11.611,181.10,0.541,49.80
11.634,181.10,0.544,49.80
11.654,181.00,0.548,49.80
11.673,181.00,0.55,49.80
11.696,180.90,0.553,49.90
11.713,180.90,0.555,49.80
11.733,180.80,0.558,49.70
11.753,180.80,0.56,49.60
11.76,180.80,0.563,49.60
11.793,180.70,0.565,49.70
11.812,180.70,0.567,49.70
11.825,180.70,0.57,49.80
11.852,180.70,0.571,49.80
11.87,180.60,0.572,49.80
11.889,180.60,0.575,49.80
11.91,180.60,0.576,49.70
11.935,180.50,0.577,49.70
11.955,180.50,0.58,49.70
11.974,180.50,0.581,49.70
11.993,180.50,0.582,49.70
12.011,180.50,0.583,49.70
12.028,180.50,0.583,49.70
12.052,180.40,0.586,49.70
12.071,180.40,0.587,49.70
12.097,180.40,0.587,49.70
12.115,180.40,0.587,49.70
12.128,180.40,0.588,49.70
12.155,180.40,0.588,49.70
12.172,180.40,0.589,49.70
12.193,180.40,0.589,49.70
12.211,180.40,0.588,49.60
12.228,180.40,0.588,49.60
12.247,180.40,0.588,49.60
12.274,180.40,0.587,49.50
12.295,180.40,0.586,49.50
12.314,180.40,0.586,49.40
12.331,180.40,0.586,49.40
12.349,180.40,0.585,49.30
12.371,180.40,0.585,49.30
12.393,180.40,0.583,49.20
12.414,180.40,0.582,49.20
12.433,180.40,0.581,49.10
12.453,180.40,0.578,49.10
12.472,180.40,0.578,49.00
12.493,180.40,0.576,48.90
12.512,180.40,0.574,48.70
12.533,180.40,0.572,48.60
12.553,180.40,0.57,48.50
12.573,180.40,0.569,48.30
12.594,180.40,0.566,48.20
12.614,180.40,0.564,48.00
12.632,180.40,0.561,47.80
12.648,180.40,0.559,47.70
12.671,180.40,0.558,47.50
12.689,180.40,0.555,47.30
12.713,180.40,0.553,47.20
12.725,180.40,0.552,47.00
12.754,180.40,0.549,46.80
12.774,180.40,0.547,46.70
12.793,180.40,0.544,46.50
12.811,180.40,0.541,46.40
12.831,180.40,0.538,46.20
12.851,180.40,0.536,46.10
12.872,180.50,0.531,45.90
12.893,180.50,0.527,45.80
12.912,180.50,0.527,45.60
12.922,180.50,0.522,45.60
12.954,180.60,0.516,45.50
12.97,180.60,0.512,45.40
12.986,180.60,0.508,45.30
13.012,180.70,0.504,45.20
13.032,180.80,0.5,45.10
13.05,180.80,0.497,45.10
13.07,180.90,0.49,45.10
13.092,181.00,0.486,45.10
13.112,181.10,0.482,45.10
13.124,181.20,0.477,45.00
13.151,181.20,0.472,44.90
13.166,181.30,0.468,44.90
13.192,181.40,0.464,44.80
13.213,181.50,0.457,44.80
13.229,181.50,0.454,44.70
13.247,181.60,0.45,44.50
13.272,181.70,0.445,44.40
13.291,181.80,0.439,44.50
13.297,181.90,0.434,44.50
13.332,182.10,0.429,44.60
13.352,182.20,0.424,44.50
13.373,182.30,0.42,44.50
13.379,182.40,0.413,44.40
13.413,182.50,0.41,44.30
13.433,182.60,0.405,44.20
13.45,182.70,0.4,44.10
13.469,182.80,0.395,44.10
13.491,183.00,0.39,44.00
13.511,183.10,0.387,44.00
13.531,183.20,0.382,44.00
13.549,183.40,0.376,44.00
13.572,183.50,0.372,44.00
13.592,183.70,0.366,44.00
13.609,183.80,0.362,44.00
13.631,184.00,0.355,43.90
13.652,184.10,0.351,43.90
13.672,184.30,0.346,44.00
13.685,184.50,0.343,44.00
13.712,184.60,0.338,44.00
13.732,184.80,0.334,44.00
13.744,184.90,0.329,44.00
13.77,185.10,0.324,44.10
13.787,185.30,0.321,44.10
13.809,185.40,0.316,44.20
13.829,185.60,0.312,44.00
13.851,185.80,0.308,43.90
13.872,186.00,0.304,43.90
13.892,186.20,0.299,43.90
13.902,186.40,0.296,44.00
13.929,186.60,0.291,44.20
13.95,186.80,0.288,44.30
13.969,187.00,0.284,44.30
13.991,187.10,0.28,44.30
14.012,187.30,0.277,44.10
14.031,187.50,0.273,44.00
14.05,187.60,0.269,43.80
14.071,187.80,0.266,43.70
14.089,188.10,0.262,43.80
14.11,188.30,0.26,43.80
14.128,188.50,0.256,43.90
14.149,188.70,0.253,44.00
14.171,188.90,0.25,44.00
14.188,189.10,0.246,44.00
14.211,189.30,0.245,44.00
14.229,189.50,0.241,44.00
14.249,189.60,0.239,44.10
14.269,189.80,0.236,44.00
14.285,190.00,0.233,44.00
14.303,190.20,0.231,44.00
14.33,190.40,0.229,43.90
14.351,190.50,0.228,44.00
14.368,190.70,0.225,44.00
14.385,190.90,0.224,44.00
14.405,191.00,0.222,44.10
