time,length,pressure,force,time_contraction,pressure_contraction,length_contraction,force_contraction,time_extension,pressure_extension,length_extension,force_extension,estimated_contraction_length,estimated_extension_length
10.033,159.5,0.22,46.3,0.0,0.22,189.5,46.3,,,,,154.40838700186055,
10.054,159.5,0.223,46.6,0.021000000000000796,0.223,189.5,46.6,,,,,154.40672389176683,
10.077,159.5,0.224,47.0,0.04400000000000048,0.224,189.5,47.0,,,,,154.40939211887817,
10.097,159.5,0.227,47.4,0.06400000000000006,0.227,189.5,47.4,,,,,154.40874353221866,
10.117,159.5,0.229,48.0,0.0840000000000014,0.229,189.5,48.0,,,,,154.41204117152296,
10.134,159.5,0.234,48.7,0.10100000000000087,0.234,189.5,48.7,,,,,154.4112376017224,
10.155,159.5,0.235,49.3,0.12199999999999989,0.235,189.5,49.3,,,,,154.41653827132131,
10.173,159.4,0.238,49.9,0.14000000000000057,0.238,189.4,49.9,,,,,154.41827199391327,
10.191,159.3,0.24,50.5,0.15800000000000125,0.24,189.3,50.5,,,,,154.42193945885614,
10.216,159.1,0.242,50.9,0.18299999999999983,0.242,189.1,50.9,,,,,154.423171996117,
10.237,158.9,0.246,51.1,0.20400000000000063,0.246,188.9,51.1,,,,,154.41784388090002,
10.257,158.6,0.25,51.0,0.2240000000000002,0.25,188.6,51.0,,,,,154.4080743025554,
10.272,158.3,0.253,50.8,0.23900000000000077,0.253,188.3,50.8,,,,,154.3986059170105,
10.294,158.0,0.258,50.6,0.261000000000001,0.258,188.0,50.6,,,,,154.38370172634222,
10.314,157.7,0.261,50.4,0.2810000000000006,0.261,187.7,50.4,,,,,154.37303789825185,
10.33,157.5,0.263,50.2,0.2970000000000006,0.263,187.5,50.2,,,,,154.36468183834046,
10.356,157.3,0.268,49.9,0.3230000000000004,0.268,187.3,49.9,,,,,154.3457331168023,
10.376,157.1,0.273,50.1,0.34299999999999997,0.273,187.1,50.1,,,,,154.3332552956789,
10.394,157.0,0.275,50.5,0.36100000000000065,0.275,187.0,50.5,,,,,154.33313322955823,
10.417,156.8,0.279,50.8,0.38400000000000034,0.279,186.8,50.8,,,,,154.3246811925785,
10.434,156.6,0.284,50.9,0.4009999999999998,0.284,186.6,50.9,,,,,154.30879508856427,
10.452,156.4,0.289,51.1,0.4190000000000005,0.289,186.4,51.1,,,,,154.29361602836363,
10.47,156.2,0.293,51.3,0.43700000000000117,0.293,186.2,51.3,,,,,154.2815050317033,
10.491,155.9,0.297,51.5,0.4580000000000002,0.297,185.9,51.5,,,,,154.2688025284052,
10.515,155.6,0.301,51.2,0.4820000000000011,0.301,185.6,51.2,,,,,154.245897790466,
10.535,155.3,0.305,50.7,0.5020000000000007,0.305,185.3,50.7,,,,,154.21787990369515,
10.556,155.1,0.308,50.3,0.5229999999999997,0.308,185.1,50.3,,,,,154.19542718624513,
10.576,155.0,0.313,50.3,0.543000000000001,0.313,185.0,50.3,,,,,154.1700871254232,
10.597,154.8,0.321,50.7,0.5640000000000001,0.321,184.8,50.7,,,,,154.13542147030847,
10.614,154.7,0.324,50.8,0.5810000000000013,0.324,184.7,50.8,,,,,154.12057626764306,
10.632,154.5,0.327,51.1,0.5990000000000002,0.327,184.5,51.1,,,,,154.10988030793206,
10.651,154.3,0.333,51.2,0.6180000000000003,0.333,184.3,51.2,,,,,154.07573013314325,
10.674,154.1,0.338,51.2,0.641,0.338,184.1,51.2,,,,,154.0436523919594,
10.696,153.9,0.341,51.4,0.6630000000000003,0.341,183.9,51.4,,,,,154.02868223448183,
10.716,153.8,0.348,51.4,0.6829999999999998,0.348,183.8,51.4,,,,,153.9799562916418,
10.729,153.6,0.352,51.4,0.6959999999999997,0.352,183.6,51.4,,,,,153.95065403835937,
10.753,153.3,0.357,51.4,0.7200000000000006,0.357,183.3,51.4,,,,,153.91249700181052,
10.769,153.1,0.362,51.3,0.7360000000000007,0.362,183.1,51.3,,,,,153.86972045197302,
10.794,152.9,0.366,51.0,0.761000000000001,0.366,182.9,51.0,,,,,153.82757337761288,
10.811,152.7,0.372,50.8,0.7780000000000005,0.372,182.7,50.8,,,,,153.76900615702564,
10.834,152.6,0.377,50.7,0.8010000000000002,0.377,182.6,50.7,,,,,153.7199168684216,
10.848,152.5,0.382,50.9,0.8150000000000013,0.382,182.5,50.9,,,,,153.67855916198494,
10.875,152.4,0.387,51.1,0.8420000000000005,0.387,182.4,51.1,,,,,153.63565306067753,
10.888,152.3,0.391,51.5,0.8550000000000004,0.391,182.3,51.5,,,,,153.60846689577903,
10.916,152.1,0.396,51.7,0.8830000000000009,0.396,182.1,51.7,,,,,153.56294157555428,
10.932,152.0,0.402,51.8,0.8990000000000009,0.402,182.0,51.8,,,,,153.50103452649873,
10.953,151.8,0.406,51.8,0.9199999999999999,0.406,181.8,51.8,,,,,153.45574503745135,
10.974,151.6,0.411,51.5,0.9410000000000007,0.411,181.6,51.5,,,,,153.3856325311496,
10.994,151.4,0.417,51.1,0.9610000000000003,0.417,181.4,51.1,,,,,153.29613613186075,
11.014,151.3,0.422,50.9,0.9809999999999999,0.422,181.3,50.9,,,,,153.22378466210134,
11.035,151.2,0.427,51.0,1.0020000000000007,0.427,181.2,51.0,,,,,153.16147621558244,
11.055,151.1,0.432,51.1,1.0220000000000002,0.432,181.1,51.1,,,,,153.0971143043933,
11.072,151.1,0.437,51.4,1.0389999999999997,0.437,181.1,51.4,,,,,153.03962797444117,
11.093,151.0,0.442,51.7,1.0600000000000005,0.442,181.0,51.7,,,,,152.9804854429647,
11.111,150.8,0.446,52.0,1.0780000000000012,0.446,180.8,52.0,,,,,152.93477154100407,
11.133,150.7,0.45,52.0,1.0999999999999996,0.45,180.7,52.0,,,,,152.87375709983309,
11.15,150.5,0.456,51.8,1.1170000000000009,0.456,180.5,51.8,,,,,152.76942516634375,
11.174,150.4,0.461,51.5,1.141,0.461,180.4,51.5,,,,,152.67248942884677,
11.194,150.3,0.465,51.3,1.1610000000000014,0.465,180.3,51.3,,,,,152.59460326770247,
11.215,150.2,0.471,51.0,1.1820000000000004,0.471,180.2,51.0,,,,,152.47385090940588,
11.227,150.1,0.476,51.0,1.1940000000000008,0.476,180.1,51.0,,,,,152.38333314982674,
11.253,150.1,0.479,51.2,1.2200000000000006,0.479,180.1,51.2,,,,,152.33890613600883,
11.272,150.0,0.483,51.5,1.2390000000000008,0.483,180.0,51.5,,,,,152.28054879742035,
11.293,149.9,0.488,51.7,1.2599999999999998,0.488,179.9,51.7,,,,,152.1958960822524,
11.314,149.8,0.495,51.8,1.2810000000000006,0.495,179.8,51.8,,,,,152.0628891028335,
11.333,149.7,0.499,51.8,1.3000000000000007,0.499,179.7,51.8,,,,,151.98111338151486,
11.354,149.6,0.501,51.6,1.3209999999999997,0.501,179.6,51.6,,,,,151.92718406880707,
11.373,149.5,0.505,51.5,1.3399999999999999,0.505,179.5,51.5,,,,,151.83614304470237,
11.395,149.5,0.51,51.3,1.362,0.51,179.5,51.3,,,,,151.71455585012683,
11.413,149.4,0.514,51.3,1.3800000000000008,0.514,179.4,51.3,,,,,151.62528542991842,
11.432,149.3,0.519,51.2,1.399000000000001,0.519,179.3,51.2,,,,,151.50429079662393,
11.453,149.3,0.522,51.3,1.42,0.522,179.3,51.3,,,,,151.4410525205691,
11.474,149.2,0.527,51.4,1.4410000000000007,0.527,179.2,51.4,,,,,151.32898582294388,
11.494,149.1,0.531,51.3,1.4610000000000003,0.531,179.1,51.3,,,,,151.22455272769005,
11.515,149.1,0.534,51.3,1.482000000000001,0.534,179.1,51.3,,,,,151.15017533043257,
11.533,149.0,0.537,51.2,1.5,0.537,179.0,51.2,,,,,151.0673641712903,
11.542,149.0,0.541,51.2,1.5090000000000003,0.541,179.0,51.2,,,,,150.96481618039815,
11.571,148.9,0.543,51.3,1.5380000000000003,0.543,178.9,51.3,,,,,150.92029353859039,
11.592,148.9,0.548,51.4,1.559000000000001,0.548,178.9,51.4,,,,,150.79581456650303,
11.612,148.8,0.552,51.4,1.5790000000000006,0.552,178.8,51.4,,,,,150.68791433794794,
11.633,148.8,0.554,51.4,1.5999999999999996,0.554,178.8,51.4,,,,,150.6331862247944,
11.654,148.7,0.558,51.5,1.6210000000000004,0.558,178.7,51.5,,,,,150.53016117652905,
11.674,148.7,0.56,51.5,1.641,0.56,178.7,51.5,,,,,150.47392781756903,
11.691,148.6,0.563,51.4,1.6580000000000013,0.563,178.6,51.4,,,,,150.38041448601086,
11.712,148.6,0.566,51.3,1.6790000000000003,0.566,178.6,51.3,,,,,150.28548939992234,
11.731,148.6,0.567,51.4,1.6980000000000004,0.567,178.6,51.4,,,,,150.26461954796747,
11.752,148.6,0.571,51.5,1.7190000000000012,0.571,178.6,51.5,,,,,150.1551202935605,
11.773,148.5,0.574,51.5,1.7400000000000002,0.574,178.5,51.5,,,,,150.06534078739142,
11.79,148.5,0.576,51.5,1.7569999999999997,0.576,178.5,51.5,,,,,150.004805229494,
11.814,148.4,0.578,51.5,1.7810000000000006,0.578,178.4,51.5,,,,,149.9437207347126,
11.831,148.4,0.58,51.4,1.798,0.58,178.4,51.4,,,,,149.8733183111382,
11.852,148.4,0.582,51.3,1.8190000000000008,0.582,178.4,51.3,,,,,149.80221242797367,
11.874,148.3,0.585,51.3,1.841000000000001,0.585,178.3,51.3,,,,,149.7076675152813,
11.891,148.3,0.586,51.3,1.8580000000000005,0.586,178.3,51.3,,,,,149.6758725871139,
11.912,148.3,0.588,51.3,1.8790000000000013,0.588,178.3,51.3,,,,,149.61186093453816,
11.924,148.3,0.589,51.4,1.891,0.589,178.3,51.4,,,,,149.58874146182166,
11.952,148.3,0.591,51.4,1.9190000000000005,0.591,178.3,51.4,,,,,149.52395532226024,
11.972,148.2,0.593,51.4,1.939,0.593,178.2,51.4,,,,,149.45860132122596,
11.991,148.2,0.593,51.3,1.9580000000000002,0.593,178.2,51.3,,,,,149.44935685574526,
12.012,148.2,0.594,51.3,1.979000000000001,0.594,178.2,51.3,,,,,149.41642928284932,
12.031,148.2,0.594,51.3,1.998000000000001,0.594,178.2,51.3,,,,,149.41642928284932,
12.05,148.2,0.596,51.2,2.0170000000000012,0.596,178.2,51.2,,,,,149.34078307441519,
12.071,148.2,0.598,51.2,2.0380000000000003,0.598,178.2,51.2,,,,,149.27385000458116,
12.092,148.1,0.599,51.2,2.059000000000001,0.599,178.1,51.2,,,,,149.24016718013095,
12.113,148.1,0.599,51.2,2.08,0.599,178.1,51.2,,,,,149.24016718013095,
12.133,148.1,0.6,51.2,2.0999999999999996,0.6,178.1,51.2,,,,,149.20633974925056,
12.148,148.1,0.599,51.2,,,,,2.115,0.599,178.1,51.2,,150.30277429526024
12.174,148.1,0.599,51.1,,,,,2.141,0.599,178.1,51.1,,150.29329893753734
12.191,148.1,0.599,51.1,,,,,2.1580000000000013,0.599,178.1,51.1,,150.29329893753734
12.21,148.1,0.6,51.1,,,,,2.1770000000000014,0.6,178.1,51.1,,150.25454979823962
12.232,148.1,0.599,51.1,,,,,2.199,0.599,178.1,51.1,,150.29329893753734
12.251,148.1,0.599,51.1,,,,,2.218,0.599,178.1,51.1,,150.29329893753734
12.272,148.1,0.599,51.0,,,,,2.2390000000000008,0.599,178.1,51.0,,150.2838121230943
12.293,148.1,0.599,51.0,,,,,2.26,0.599,178.1,51.0,,150.2838121230943
12.313,148.1,0.598,51.0,,,,,2.280000000000001,0.598,178.1,51.0,,150.32243821222326
12.333,148.1,0.598,51.0,,,,,2.3000000000000007,0.598,178.1,51.0,,150.32243821222326
12.35,148.1,0.597,50.9,,,,,2.317,0.597,178.1,50.9,,150.35148459033888
12.367,148.1,0.597,50.9,,,,,2.3340000000000014,0.597,178.1,50.9,,150.35148459033888
12.39,148.1,0.596,50.8,,,,,2.357000000000001,0.596,178.1,50.8,,150.3804382202207
12.411,148.1,0.594,50.8,,,,,2.378,0.594,178.1,50.8,,150.45670872818366
12.431,148.1,0.593,50.7,,,,,2.3979999999999997,0.593,178.1,50.7,,150.48532561361466
12.453,148.1,0.592,50.6,,,,,2.42,0.592,178.1,50.6,,150.51385043941602
12.469,148.1,0.591,50.5,,,,,2.436,0.591,178.1,50.5,,150.54228335392418
12.486,148.1,0.588,50.4,,,,,2.453000000000001,0.588,178.1,50.4,,150.64527314604024
12.51,148.1,0.587,50.3,,,,,2.4770000000000003,0.587,178.1,50.3,,150.6732811461301
12.53,148.1,0.585,50.2,,,,,2.497,0.585,178.1,50.2,,150.73803986341147
12.55,148.1,0.585,50.1,,,,,2.5170000000000012,0.585,178.1,50.1,,150.72902407158864
12.567,148.1,0.582,49.9,,,,,2.5340000000000007,0.582,178.1,49.9,,150.82088630628695
12.592,148.1,0.58,49.8,,,,,2.559000000000001,0.58,178.1,49.8,,150.8845247674538
12.609,148.1,0.577,49.7,,,,,2.5760000000000005,0.577,178.1,49.7,,150.9834444081074
12.629,148.1,0.576,49.5,,,,,2.596,0.576,178.1,49.5,,151.00162181358832
12.649,148.1,0.574,49.4,,,,,2.6159999999999997,0.574,178.1,49.4,,151.06387418405149
12.67,148.1,0.572,49.3,,,,,2.6370000000000005,0.572,178.1,49.3,,151.1256452291488
12.689,148.1,0.57,49.1,,,,,2.6560000000000006,0.57,178.1,49.1,,151.17840841965963
12.71,148.1,0.569,49.0,,,,,2.6770000000000014,0.569,178.1,49.0,,151.20465746901652
12.731,148.1,0.567,48.8,,,,,2.6980000000000004,0.567,178.1,48.8,,151.25689121761553
12.752,148.1,0.564,48.7,,,,,2.719000000000001,0.564,178.1,48.7,,151.35128978237728
12.771,148.1,0.56,48.5,,,,,2.7380000000000013,0.56,178.1,48.5,,151.46987121767995
12.789,148.1,0.558,48.3,,,,,2.7560000000000002,0.558,178.1,48.3,,151.5203095596175
12.812,148.1,0.555,48.1,,,,,2.779,0.555,178.1,48.1,,151.6033849967699
12.828,148.1,0.55,47.8,,,,,2.795,0.55,178.1,47.8,,151.74237221808113
12.85,148.1,0.548,47.5,,,,,2.817,0.548,178.1,47.5,,151.78307942030656
12.87,148.1,0.543,47.3,,,,,2.8369999999999997,0.543,178.1,47.3,,151.9262510710676
12.89,148.1,0.539,47.0,,,,,2.857000000000001,0.539,178.1,47.0,,152.02803545160933
12.909,148.2,0.534,46.8,,,,,2.8760000000000012,0.534,178.2,46.8,,152.16606029913174
12.931,148.2,0.531,46.6,,,,,2.8979999999999997,0.531,178.2,46.6,,152.2416070483316
12.949,148.2,0.527,46.5,,,,,2.9160000000000004,0.527,178.2,46.5,,152.35291904404053
12.968,148.2,0.523,46.4,,,,,2.9350000000000005,0.523,178.2,46.4,,152.46221805617404
12.989,148.3,0.52,46.3,,,,,2.9560000000000013,0.52,178.3,46.3,,152.54114386191893
13.01,148.3,0.515,46.1,,,,,2.9770000000000003,0.515,178.3,46.1,,152.66805694743357
13.03,148.3,0.51,45.9,,,,,2.997,0.51,178.3,45.9,,152.79214842387776
13.051,148.4,0.505,45.8,,,,,3.0180000000000007,0.505,178.4,45.8,,152.9199379432959
13.07,148.5,0.5,45.6,,,,,3.037000000000001,0.5,178.5,45.6,,153.03833139649606
13.088,148.5,0.497,45.6,,,,,3.0549999999999997,0.497,178.5,45.6,,153.1155430736979
13.112,148.6,0.493,45.5,,,,,3.0790000000000006,0.493,178.6,45.5,,153.21052339839866
13.126,148.7,0.488,45.5,,,,,3.093,0.488,178.7,45.5,,153.33407871364292
13.147,148.8,0.483,45.5,,,,,3.1140000000000008,0.483,178.8,45.5,,153.45438041153787
13.165,148.8,0.478,45.5,,,,,3.1319999999999997,0.478,178.8,45.5,,153.57147336391697
13.19,148.9,0.473,45.4,,,,,3.157,0.473,178.9,45.4,,153.6799277295712
13.21,149.0,0.468,45.3,,,,,3.1770000000000014,0.468,179.0,45.3,,153.78556201561472
13.23,149.1,0.464,45.2,,,,,3.197000000000001,0.464,179.1,45.2,,153.86702067968173
13.25,149.2,0.459,45.1,,,,,3.2170000000000005,0.459,179.2,45.1,,153.96770281260092
13.271,149.3,0.454,45.1,,,,,3.2380000000000013,0.454,179.3,45.1,,154.07060545298916
13.284,149.4,0.448,45.1,,,,,3.2510000000000012,0.448,179.4,45.1,,154.1901874997701
13.301,149.5,0.444,45.1,,,,,3.2680000000000007,0.444,179.5,45.1,,154.26758044558485
13.321,149.6,0.438,45.1,,,,,3.2880000000000003,0.438,179.6,45.1,,154.3802346721951
13.349,149.7,0.433,45.1,,,,,3.3160000000000007,0.433,179.7,45.1,,154.47101362728452
13.37,149.7,0.428,45.0,,,,,3.3369999999999997,0.428,179.7,45.0,,154.55481346240992
13.39,149.8,0.424,44.9,,,,,3.357000000000001,0.424,179.8,44.9,,154.61925219568835
13.411,149.9,0.42,44.7,,,,,3.378,0.42,179.9,44.7,,154.67815195233015
13.429,150.1,0.415,44.7,,,,,3.396000000000001,0.415,180.1,44.7,,154.75968182124836
13.444,150.2,0.409,44.7,,,,,3.4110000000000014,0.409,180.2,44.7,,154.85406547758038
13.467,150.3,0.404,44.8,,,,,3.434000000000001,0.404,180.3,44.8,,154.93351057183403
13.489,150.5,0.4,44.8,,,,,3.4560000000000013,0.4,180.5,44.8,,154.992260828285
13.509,150.6,0.394,44.9,,,,,3.476000000000001,0.394,180.6,44.9,,155.08078818305006
13.527,150.7,0.389,44.8,,,,,3.4939999999999998,0.389,180.7,44.8,,155.14570519524912
13.549,150.9,0.385,44.8,,,,,3.516,0.385,180.9,44.8,,155.19861904723174
13.57,151.0,0.379,44.8,,,,,3.537000000000001,0.379,181.0,44.8,,155.27518111024528
13.59,151.1,0.374,44.7,,,,,3.5570000000000004,0.374,181.1,44.7,,155.33352722520684
13.606,151.2,0.37,44.5,,,,,3.5730000000000004,0.37,181.2,44.5,,155.37530736657
13.628,151.4,0.366,44.3,,,,,3.5950000000000006,0.366,181.4,44.3,,155.41598551728927
13.648,151.5,0.36,44.2,,,,,3.615,0.36,181.5,44.2,,155.48030718327
13.667,151.7,0.355,44.3,,,,,3.6340000000000003,0.355,181.7,44.3,,155.53643819195355
13.687,151.9,0.351,44.3,,,,,3.654,0.351,181.9,44.3,,155.5777063723946
13.707,152.0,0.348,44.4,,,,,3.6740000000000013,0.348,182.0,44.4,,155.61021715179825
13.729,152.2,0.341,44.5,,,,,3.6959999999999997,0.341,182.2,44.5,,155.67975931993175
13.749,152.3,0.338,44.5,,,,,3.716000000000001,0.338,182.3,44.5,,155.70734348668336
13.762,152.5,0.333,44.4,,,,,3.729000000000001,0.333,182.5,44.4,,155.7496290625578
13.785,152.6,0.328,44.2,,,,,3.7520000000000007,0.328,182.6,44.2,,155.78812821810766
13.808,152.7,0.324,44.0,,,,,3.7750000000000004,0.324,182.7,44.0,,155.81702668922165
13.823,152.9,0.318,43.9,,,,,3.790000000000001,0.318,182.9,43.9,,155.86250510885554
13.843,153.1,0.316,43.9,,,,,3.8100000000000005,0.316,183.1,43.9,,155.87776508595257
13.87,153.3,0.31,43.9,,,,,3.8369999999999997,0.31,183.3,43.9,,155.92187687169405
13.889,153.5,0.307,44.0,,,,,3.856,0.307,183.5,44.0,,155.94475230107253
13.904,153.7,0.302,44.1,,,,,3.8710000000000004,0.302,183.7,44.1,,155.98023746753432
13.914,153.8,0.3,44.2,,,,,3.8810000000000002,0.3,183.8,44.2,,155.99491338575143
13.946,154.0,0.294,44.2,,,,,3.9130000000000003,0.294,184.0,44.2,,156.03243367480684
13.965,154.2,0.291,44.1,,,,,3.9320000000000004,0.291,184.2,44.1,,156.04884647040558
13.988,154.3,0.288,44.0,,,,,3.955,0.288,184.3,44.0,,156.0647903096583
14.003,154.5,0.283,43.9,,,,,3.9700000000000006,0.283,184.5,43.9,,156.09128072660417
14.029,154.7,0.28,43.9,,,,,3.9960000000000004,0.28,184.7,43.9,,156.10735791226577
14.05,154.9,0.277,43.9,,,,,4.017000000000001,0.277,184.9,43.9,,156.12292154344271
14.067,155.1,0.272,44.1,,,,,4.034000000000001,0.272,185.1,44.1,,156.15029422379547
14.085,155.4,0.269,44.3,,,,,4.052000000000001,0.269,185.4,44.3,,156.16694231037948
14.108,155.5,0.267,44.3,,,,,4.075000000000001,0.267,185.5,44.3,,156.17608158934382
14.128,155.7,0.263,44.4,,,,,4.095000000000001,0.263,185.7,44.4,,156.19490973360246
14.148,155.9,0.26,44.4,,,,,4.115,0.26,185.9,44.4,,156.20758949389648
14.165,156.1,0.256,44.4,,,,,4.132,0.256,186.1,44.4,,156.22380609499862
14.188,156.3,0.253,44.5,,,,,4.155000000000001,0.253,186.3,44.5,,156.236533521593
14.206,156.5,0.251,44.5,,,,,4.173,0.251,186.5,44.5,,156.24405153774032
14.23,156.6,0.247,44.4,,,,,4.197000000000001,0.247,186.6,44.4,,156.25752329482762
14.247,156.8,0.245,44.4,,,,,4.214,0.245,186.8,44.4,,156.26451486610304
14.267,157.0,0.241,44.3,,,,,4.234,0.241,187.0,44.3,,156.27700990423938
14.287,157.1,0.239,44.2,,,,,4.254000000000001,0.239,187.1,44.2,,156.28255200099176
14.308,157.3,0.238,44.2,,,,,4.275,0.238,187.3,44.2,,156.28574137568873
14.328,157.5,0.235,44.2,,,,,4.295,0.235,187.5,44.2,,156.29506080924045
14.348,157.7,0.233,44.3,,,,,4.315000000000001,0.233,187.7,44.3,,156.30196931376898
14.369,157.9,0.23,44.5,,,,,4.336,0.23,187.9,44.5,,156.3124168784335
14.379,158.0,0.228,44.7,,,,,4.346,0.228,188.0,44.7,,156.31971643245234
14.405,158.2,0.227,44.7,,,,,4.372,0.227,188.2,44.7,,156.32243206743615
