time,length,pressure,force,time_contraction,pressure_contraction,length_contraction,force_contraction,time_extension,pressure_extension,length_extension,force_extension,estimated_contraction_length,estimated_extension_length
10.003,155.2,0.424,45.3,0.0,0.424,182.2,45.3,,,,,155.88668059654924,
10.015,155.2,0.424,45.3,0.012000000000000455,0.424,182.2,45.3,,,,,155.88668059654924,
10.03,155.2,0.423,45.3,0.026999999999999247,0.423,182.2,45.3,,,,,155.92174063018507,
10.038,155.2,0.424,45.3,0.03500000000000014,0.424,182.2,45.3,,,,,155.88668059654924,
10.055,155.2,0.424,45.3,0.0519999999999996,0.424,182.2,45.3,,,,,155.88668059654924,
10.067,155.2,0.424,45.4,0.06400000000000006,0.424,182.2,45.4,,,,,155.89857893280063,
10.078,155.2,0.426,45.4,0.07499999999999929,0.426,182.2,45.4,,,,,155.82817589937454,
10.091,155.2,0.426,45.5,0.08799999999999919,0.426,182.2,45.5,,,,,155.8401309594915,
10.103,155.2,0.427,45.7,0.09999999999999964,0.427,182.2,45.7,,,,,155.82875375102017,
10.115,155.2,0.431,46.1,0.1120000000000001,0.431,182.2,46.1,,,,,155.73485996618297,
10.128,155.2,0.433,46.6,0.125,0.433,182.2,46.6,,,,,155.72402350046642,
10.141,155.2,0.435,47.3,0.1379999999999999,0.435,182.2,47.3,,,,,155.73769970454862,
10.15,155.1,0.437,47.9,0.14700000000000024,0.437,182.1,47.9,,,,,155.73944122044185,
10.166,155.1,0.44,48.4,0.16300000000000026,0.44,182.1,48.4,,,,,155.69309863021127,
10.176,155.0,0.442,48.9,0.17300000000000004,0.442,182.0,48.9,,,,,155.6827652177935,
10.186,154.9,0.445,49.3,0.18299999999999983,0.445,181.9,49.3,,,,,155.62379119970666,
10.199,154.8,0.448,49.4,0.19599999999999973,0.448,181.8,49.4,,,,,155.52678542042352,
10.216,154.6,0.45,49.6,0.2129999999999992,0.45,181.6,49.6,,,,,155.47847042342897,
10.24,154.3,0.454,50.0,0.2370000000000001,0.454,181.3,50.0,,,,,155.38116025018562,
10.248,154.0,0.456,49.9,0.24499999999999922,0.456,181.0,49.9,,,,,155.29379627392964,
10.276,153.7,0.46,49.2,0.2729999999999997,0.46,180.7,49.2,,,,,155.0528260807935,
10.29,153.5,0.465,49.0,0.28699999999999903,0.465,180.5,49.0,,,,,154.8348892921693,
10.319,153.2,0.468,49.1,0.3160000000000007,0.468,180.2,49.1,,,,,154.73139564025936,
10.337,153.0,0.471,49.2,0.33399999999999963,0.471,180.0,49.2,,,,,154.62705256349594,
10.357,152.8,0.476,49.0,0.3539999999999992,0.476,179.8,49.0,,,,,154.4022487212037,
10.378,152.6,0.481,49.1,0.375,0.481,179.6,49.1,,,,,154.2145681895189,
10.398,152.4,0.483,49.6,0.3949999999999996,0.483,179.4,49.6,,,,,154.20118600790727,
10.409,152.2,0.488,49.5,0.4060000000000006,0.488,179.2,49.5,,,,,153.9831763104578,
10.435,152.0,0.493,49.6,0.4320000000000004,0.493,179.0,49.6,,,,,153.7897479483497,
10.459,151.7,0.495,49.9,0.4559999999999995,0.495,178.7,49.9,,,,,153.74782214828164,
10.475,151.4,0.498,49.7,0.47199999999999953,0.498,178.4,49.7,,,,,153.59377017437856,
10.493,151.1,0.503,49.2,0.4900000000000002,0.503,178.1,49.2,,,,,153.3104157315824,
10.517,150.9,0.509,49.1,0.5139999999999993,0.509,177.9,49.1,,,,,153.03630663271642,
10.535,150.7,0.512,49.3,0.532,0.512,177.7,49.3,,,,,152.93358513166498,
10.558,150.4,0.516,49.4,0.5549999999999997,0.516,177.4,49.4,,,,,152.77138302982777,
10.579,150.2,0.522,49.2,0.5760000000000005,0.522,177.2,49.2,,,,,152.4737176623824,
10.599,150.0,0.527,49.4,0.5960000000000001,0.527,177.0,49.4,,,,,152.27638149577794,
10.619,149.7,0.533,49.7,0.6159999999999997,0.533,176.7,49.7,,,,,152.0455860804567,
10.638,149.5,0.536,49.7,0.6349999999999998,0.536,176.5,49.7,,,,,151.9064204748977,
10.647,149.2,0.539,49.2,0.6440000000000001,0.539,176.2,49.2,,,,,151.6903910003079,
10.674,149.0,0.547,49.0,0.6709999999999994,0.547,176.0,49.0,,,,,151.27962716703763,
10.696,148.8,0.548,49.6,0.6929999999999996,0.548,175.8,49.6,,,,,151.3241263430243,
10.713,148.6,0.552,49.7,0.7099999999999991,0.552,175.6,49.7,,,,,151.14696628046497,
10.732,148.4,0.559,49.3,0.7289999999999992,0.559,175.4,49.3,,,,,150.74261239676764,
10.759,148.2,0.564,49.4,0.7560000000000002,0.564,175.2,49.4,,,,,150.51067227836566,
10.779,148.0,0.567,49.8,0.7759999999999998,0.567,175.0,49.8,,,,,150.42457976976243,
10.799,147.7,0.571,49.7,0.7959999999999994,0.571,174.7,49.7,,,,,150.20740710577618,
10.815,147.5,0.582,49.1,0.8119999999999994,0.582,174.5,49.1,,,,,149.54634116562153,
10.829,147.3,0.587,49.3,0.8260000000000005,0.587,174.3,49.3,,,,,149.31827630048414,
10.856,147.1,0.589,49.9,0.8529999999999998,0.589,174.1,49.9,,,,,149.31273050840954,
10.873,146.9,0.596,49.6,0.8699999999999992,0.596,173.9,49.6,,,,,148.89197280180593,
10.89,146.7,0.6,49.0,0.8870000000000005,0.6,173.7,49.0,,,,,148.57600577306434,
10.917,146.5,0.604,49.6,0.9139999999999997,0.604,173.5,49.6,,,,,148.46121105297274,
10.938,146.3,0.607,49.8,0.9350000000000005,0.607,173.3,49.8,,,,,148.3320318802679,
10.959,146.1,0.611,49.3,0.9559999999999995,0.611,173.1,49.3,,,,,148.02665177605726,
10.977,146.0,0.619,49.3,0.9740000000000002,0.619,173.0,49.3,,,,,147.58159436774537,
10.989,145.8,0.621,50.0,0.9860000000000007,0.621,172.8,50.0,,,,,147.59179992264063,
11.017,145.6,0.624,50.0,1.0139999999999993,0.624,172.6,50.0,,,,,147.422952899133,
11.037,145.4,0.635,49.4,1.0340000000000007,0.635,172.4,49.4,,,,,146.68762288349635,
11.058,145.2,0.638,49.5,1.0549999999999997,0.638,172.2,49.5,,,,,146.53150010956585,
11.077,145.0,0.643,49.9,1.0739999999999998,0.643,172.0,49.9,,,,,146.31174364836141,
11.089,144.9,0.648,49.5,1.0860000000000003,0.648,171.9,49.5,,,,,145.9439973201131,
11.116,144.7,0.654,49.2,1.1129999999999995,0.654,171.7,49.2,,,,,145.53066900369987,
11.126,144.6,0.659,49.6,1.1229999999999993,0.659,171.6,49.6,,,,,145.3032490528398,
11.155,144.4,0.662,49.9,1.1519999999999992,0.662,171.4,49.9,,,,,145.17719417077342,
11.171,144.2,0.666,49.6,1.1679999999999993,0.666,171.2,49.6,,,,,144.87671762945297,
11.198,144.1,0.673,49.4,1.1950000000000003,0.673,171.1,49.4,,,,,144.40662104222417,
11.217,143.9,0.675,49.7,1.2140000000000004,0.675,170.9,49.7,,,,,144.33921549982767,
11.237,143.8,0.677,49.6,1.234,0.677,170.8,49.6,,,,,144.19522682259338,
11.257,143.6,0.685,49.3,1.2539999999999996,0.685,170.6,49.3,,,,,143.63293459124927,
11.274,143.5,0.69,49.5,1.270999999999999,0.69,170.5,49.5,,,,,143.35264683108974,
11.283,143.4,0.693,49.7,1.2799999999999994,0.693,170.4,49.7,,,,,143.199047746502,
11.316,143.3,0.696,49.7,1.3130000000000006,0.696,170.3,49.7,,,,,143.00544751530703,
11.332,143.2,0.701,49.5,1.3290000000000006,0.701,170.2,49.5,,,,,142.64090210372342,
11.349,143.0,0.706,49.4,1.346,0.706,170.0,49.4,,,,,142.29289651397926,
11.375,142.9,0.709,49.6,1.3719999999999999,0.709,169.9,49.6,,,,,142.13468514831766,
11.398,142.8,0.714,49.8,1.3949999999999996,0.714,169.8,49.8,,,,,141.84258895646562,
11.417,142.7,0.718,49.7,1.4139999999999997,0.718,169.7,49.7,,,,,141.55452598227325,
11.434,142.5,0.721,49.6,1.4309999999999992,0.721,169.5,49.6,,,,,141.33204297636445,
11.455,142.4,0.725,49.5,1.452,0.725,169.4,49.5,,,,,141.0403742193109,
11.475,142.3,0.728,49.5,1.4719999999999995,0.728,169.3,49.5,,,,,140.8357153122213,
11.496,142.3,0.732,49.4,1.4930000000000003,0.732,169.3,49.4,,,,,140.54055579920848,
11.516,142.2,0.735,49.5,1.513,0.735,169.2,49.5,,,,,140.35420867089297,
11.536,142.1,0.739,49.6,1.5329999999999995,0.739,169.1,49.6,,,,,140.09746024151443,
11.549,142.0,0.742,49.6,1.5459999999999994,0.742,169.0,49.6,,,,,139.8881241800654,
11.576,141.9,0.745,49.6,1.5730000000000004,0.745,168.9,49.6,,,,,139.67776746938569,
11.595,141.8,0.748,49.6,1.5920000000000005,0.748,168.8,49.6,,,,,139.4663901094753,
11.614,141.8,0.752,49.6,1.6110000000000007,0.752,168.8,49.6,,,,,139.18296595301376,
11.635,141.7,0.754,49.6,1.6319999999999997,0.754,168.7,49.6,,,,,139.04057344196252,
11.641,141.6,0.757,49.7,1.638,0.757,168.6,49.7,,,,,138.84754200342292,
11.676,141.5,0.759,49.5,1.673,0.759,168.5,49.5,,,,,138.6611419228993,
11.696,141.4,0.762,49.3,1.6929999999999996,0.762,168.4,49.3,,,,,138.4018110365062,
11.716,141.4,0.765,49.3,1.7129999999999992,0.765,168.4,49.3,,,,,138.18439237147084,
11.735,141.3,0.768,49.4,1.7319999999999993,0.768,168.3,49.4,,,,,137.98767738184532,
11.748,141.3,0.77,49.5,1.7449999999999992,0.77,168.3,49.5,,,,,137.8633224437461,
11.775,141.2,0.772,49.7,1.7720000000000002,0.772,168.2,49.7,,,,,137.76046510386934,
11.782,141.2,0.773,49.6,1.779,0.773,168.2,49.6,,,,,137.66522019569592,
11.816,141.1,0.775,49.5,1.8130000000000006,0.775,168.1,49.5,,,,,137.4961410071462,
11.836,141.1,0.775,49.4,1.8330000000000002,0.775,168.1,49.4,,,,,137.47421683300064,
11.857,141.1,0.778,49.4,1.8539999999999992,0.778,168.1,49.4,,,,,137.25246123001608,
11.877,141.0,0.779,49.4,1.8740000000000006,0.779,168.0,49.4,,,,,137.17831588474775,
11.897,141.0,0.781,49.4,1.8940000000000001,0.781,168.0,49.4,,,,,137.02968497780085,
11.914,141.0,0.783,49.4,1.9109999999999996,0.783,168.0,49.4,,,,,136.88060044897367,
11.934,140.9,0.784,49.5,1.9309999999999992,0.784,167.9,49.5,,,,,136.82806987665168,
11.955,140.9,0.785,49.5,1.952,0.785,167.9,49.5,,,,,136.7532727236908,
11.972,140.9,0.786,49.4,1.9689999999999994,0.786,167.9,49.4,,,,,136.65612311470733,
11.987,140.8,0.787,49.4,1.984,0.787,167.8,49.4,,,,,136.58107052567837,
12.014,140.8,0.789,49.4,2.0109999999999992,0.789,167.8,49.4,,,,,136.4306251312103,
12.036,140.8,0.789,49.4,2.0329999999999995,0.789,167.8,49.4,,,,,136.4306251312103,
12.052,140.8,0.79,49.4,2.0489999999999995,0.79,167.8,49.4,,,,,136.3552323257711,
12.074,140.8,0.79,49.4,2.0709999999999997,0.79,167.8,49.4,,,,,136.3552323257711,
12.094,140.8,0.789,49.4,2.0909999999999993,0.789,167.8,49.4,,,,,136.4306251312103,
12.114,140.7,0.791,49.3,2.1110000000000007,0.791,167.7,49.3,,,,,136.2573434122796,
12.135,140.7,0.791,49.3,2.1319999999999997,0.791,167.7,49.3,,,,,136.2573434122796,
12.155,140.7,0.791,49.4,2.1519999999999992,0.791,167.7,49.4,,,,,136.2797261148619,
12.175,140.7,0.792,49.4,2.1720000000000006,0.792,167.7,49.4,,,,,136.2041064984826,
12.196,140.7,0.791,49.4,,,,,2.1929999999999996,0.791,167.7,49.4,,135.6939130812932
12.201,140.7,0.792,49.4,,,,,2.1980000000000004,0.792,167.7,49.4,,135.61895001407078
12.234,140.7,0.792,49.4,,,,,2.231,0.792,167.7,49.4,,135.61895001407078
12.254,140.7,0.791,49.4,,,,,2.2509999999999994,0.791,167.7,49.4,,135.6939130812932
12.275,140.7,0.791,49.4,,,,,2.2720000000000002,0.791,167.7,49.4,,135.6939130812932
12.294,140.7,0.79,49.3,,,,,2.2910000000000004,0.79,167.7,49.3,,135.74619104473027
12.315,140.7,0.79,49.3,,,,,2.3119999999999994,0.79,167.7,49.3,,135.74619104473027
12.335,140.7,0.79,49.2,,,,,2.3320000000000007,0.79,167.7,49.2,,135.7236170344676
12.355,140.7,0.789,49.2,,,,,2.3520000000000003,0.789,167.7,49.2,,135.79841327518398
12.372,140.7,0.787,49.1,,,,,2.3689999999999998,0.787,167.7,49.1,,135.92517913147825
12.38,140.7,0.787,49.0,,,,,2.3770000000000007,0.787,167.7,49.0,,135.90269053714127
12.414,140.7,0.786,48.9,,,,,2.4109999999999996,0.786,167.7,48.9,,135.9547455686449
12.431,140.7,0.785,48.8,,,,,2.427999999999999,0.785,167.7,48.8,,136.00674486716514
12.447,140.7,0.785,48.7,,,,,2.443999999999999,0.785,167.7,48.7,,135.98430925825076
12.473,140.7,0.783,48.5,,,,,2.4700000000000006,0.783,167.7,48.5,,136.0881960168805
12.481,140.7,0.783,48.5,,,,,2.4779999999999998,0.783,167.7,48.5,,136.0881960168805
12.514,140.7,0.781,48.3,,,,,2.5109999999999992,0.781,167.7,48.3,,136.19185984357674
12.532,140.7,0.78,48.1,,,,,2.529,0.78,167.7,48.1,,136.221308574767
12.552,140.7,0.778,47.9,,,,,2.5489999999999995,0.778,167.7,47.9,,136.3246933641024
12.573,140.7,0.775,47.7,,,,,2.5700000000000003,0.775,167.7,47.7,,136.50151373206484
12.589,140.7,0.773,47.4,,,,,2.5860000000000003,0.773,167.7,47.4,,136.58218001023207
12.607,140.7,0.772,47.2,,,,,2.603999999999999,0.772,167.7,47.2,,136.61142962486556
12.626,140.7,0.769,46.9,,,,,2.6229999999999993,0.769,167.7,46.9,,136.7651686586019
12.654,140.7,0.768,46.7,,,,,2.651,0.768,167.7,46.7,,136.79433136753352
12.675,140.8,0.763,46.5,,,,,2.6720000000000006,0.763,167.8,46.5,,137.1148023468378
12.69,140.8,0.762,46.2,,,,,2.6869999999999994,0.762,167.8,46.2,,137.1219424162356
12.713,140.8,0.759,45.9,,,,,2.709999999999999,0.759,167.8,45.9,,137.27400946047104
12.733,140.8,0.757,45.7,,,,,2.7300000000000004,0.757,167.8,45.7,,137.37510882504452
12.753,140.9,0.754,45.6,,,,,2.75,0.754,167.9,45.6,,137.56950204098973
12.773,140.9,0.752,45.4,,,,,2.7699999999999996,0.752,167.9,45.4,,137.66993335465094
12.794,141.0,0.748,45.3,,,,,2.7910000000000004,0.748,168.0,45.3,,137.93435437763384
12.806,141.0,0.745,45.2,,,,,2.802999999999999,0.745,168.0,45.2,,138.12630560296202
12.833,141.1,0.742,45.1,,,,,2.83,0.742,168.1,45.1,,138.31741356773705
12.839,141.2,0.739,45.0,,,,,2.8360000000000003,0.739,168.2,45.0,,138.50767827195892
12.873,141.3,0.735,45.1,,,,,2.869999999999999,0.735,168.3,45.1,,138.80910484437462
12.883,141.4,0.732,45.1,,,,,2.879999999999999,0.732,168.4,45.1,,139.01812764762786
12.9,141.5,0.728,45.2,,,,,2.8970000000000002,0.728,168.5,45.2,,139.31604411377234
12.934,141.6,0.725,45.3,,,,,2.930999999999999,0.725,168.6,45.3,,139.54330932425458
12.954,141.7,0.72,45.3,,,,,2.9510000000000005,0.72,168.7,45.3,,139.88513933397738
12.974,141.8,0.717,45.4,,,,,2.971,0.717,168.8,45.4,,140.1093483127461
12.994,141.8,0.714,45.4,,,,,2.9909999999999997,0.714,168.8,45.4,,140.31197331099258
13.008,141.9,0.71,45.4,,,,,3.004999999999999,0.71,168.9,45.4,,140.5805514143692
13.025,142.0,0.707,45.4,,,,,3.0220000000000002,0.707,169.0,45.4,,140.78079357118773
13.043,142.1,0.703,45.3,,,,,3.039999999999999,0.703,169.1,45.3,,141.02614273146187
13.074,142.2,0.701,45.3,,,,,3.0709999999999997,0.701,169.2,45.3,,141.15822252113446
13.093,142.3,0.697,45.3,,,,,3.09,0.697,169.3,45.3,,141.42102047680646
13.109,142.4,0.693,45.3,,,,,3.106,0.693,169.4,45.3,,141.68200293424763
13.129,142.5,0.691,45.3,,,,,3.1259999999999994,0.691,169.5,45.3,,141.81181335113163
13.154,142.6,0.687,45.3,,,,,3.151,0.687,169.6,45.3,,142.07007256122654
13.171,142.7,0.684,45.3,,,,,3.1679999999999993,0.684,169.7,45.3,,142.2625755480837
13.192,142.8,0.68,45.3,,,,,3.189,0.68,169.8,45.3,,142.5176576362746
13.212,142.9,0.675,45.2,,,,,3.2089999999999996,0.675,169.9,45.2,,142.81474455663025
13.233,143.0,0.671,45.2,,,,,3.2300000000000004,0.671,170.0,45.2,,143.06586199534738
13.252,143.1,0.668,45.1,,,,,3.2490000000000006,0.668,170.1,45.1,,143.23400402076345
13.271,143.3,0.663,45.1,,,,,3.2680000000000007,0.663,170.3,45.1,,143.54379602211336
13.294,143.4,0.659,45.2,,,,,3.2910000000000004,0.659,170.4,45.2,,143.80832132211367
13.31,143.6,0.653,45.2,,,,,3.3070000000000004,0.653,170.6,45.2,,144.17342367896768
13.332,143.7,0.648,45.2,,,,,3.3290000000000006,0.648,170.7,45.2,,144.47455525542844
13.349,143.9,0.643,45.1,,,,,3.346,0.643,170.9,45.1,,144.7545968676559
13.372,144.1,0.638,45.1,,,,,3.3689999999999998,0.638,171.1,45.1,,145.05020528907727
13.392,144.2,0.633,45.3,,,,,3.3889999999999993,0.633,171.2,45.3,,145.37888000816326
13.413,144.4,0.629,45.3,,,,,3.41,0.629,171.4,45.3,,145.61081449391085
13.433,144.6,0.622,45.1,,,,,3.4299999999999997,0.622,171.6,45.1,,145.9770895062018
13.454,144.8,0.619,44.7,,,,,3.4510000000000005,0.619,171.8,44.7,,146.07749501362613
13.474,145.0,0.615,44.9,,,,,3.471,0.615,172.0,44.9,,146.33863660551316
13.489,145.2,0.608,45.4,,,,,3.4860000000000007,0.608,172.2,45.4,,146.81588158572572
13.507,145.3,0.603,45.6,,,,,3.5039999999999996,0.603,172.3,45.6,,147.1252676042165
13.527,145.5,0.598,45.3,,,,,3.523999999999999,0.598,172.5,45.3,,147.346750021565
13.548,145.7,0.594,45.0,,,,,3.545,0.594,172.7,45.0,,147.51245729485163
13.573,145.8,0.591,45.1,,,,,3.5700000000000003,0.591,172.8,45.1,,147.69026577305723
13.59,146.0,0.585,45.2,,,,,3.5869999999999997,0.585,173.0,45.2,,148.0257632931791
13.613,146.2,0.578,45.0,,,,,3.6099999999999994,0.578,173.2,45.0,,148.35994047600133
13.633,146.4,0.572,44.7,,,,,3.629999999999999,0.572,173.4,44.7,,148.62187841524133
13.65,146.6,0.571,44.8,,,,,3.6470000000000002,0.571,173.6,44.8,,148.68938974584398
13.671,146.8,0.565,45.1,,,,,3.6679999999999993,0.565,173.8,45.1,,149.04304302537793
13.679,147.0,0.561,45.3,,,,,3.676,0.561,174.0,45.3,,149.2759295223001
13.711,147.2,0.555,45.1,,,,,3.708,0.555,174.2,45.1,,149.5429176134811
13.732,147.4,0.55,44.7,,,,,3.728999999999999,0.55,174.4,44.7,,149.72674369313955
13.753,147.6,0.547,44.6,,,,,3.75,0.547,174.6,44.6,,149.85777225941084
13.761,147.9,0.541,44.9,,,,,3.757999999999999,0.541,174.9,44.9,,150.19329698238323
13.794,148.1,0.537,45.0,,,,,3.7910000000000004,0.537,175.1,45.0,,150.39902802252578
13.811,148.3,0.533,45.0,,,,,3.808,0.533,175.3,45.0,,150.5877512153699
13.831,148.5,0.528,45.0,,,,,3.8279999999999994,0.528,175.5,45.0,,150.8211021620379
13.851,148.7,0.525,45.0,,,,,3.8480000000000008,0.525,175.7,45.0,,150.9597511063656
13.871,148.9,0.52,44.9,,,,,3.8680000000000003,0.52,175.9,44.9,,151.17400212150338
13.892,149.1,0.516,44.7,,,,,3.8889999999999993,0.516,176.1,44.7,,151.32624061424687
13.905,149.3,0.511,44.7,,,,,3.9019999999999992,0.511,176.3,44.7,,151.5503975573596
13.925,149.5,0.508,44.7,,,,,3.9220000000000006,0.508,176.5,44.7,,151.68353009955408
13.953,149.8,0.503,44.7,,,,,3.9499999999999993,0.503,176.8,44.7,,151.9031482970897
13.97,150.0,0.5,44.6,,,,,3.9670000000000005,0.5,177.0,44.6,,152.01959038836273
13.984,150.2,0.497,44.9,,,,,3.981,0.497,177.2,44.9,,152.190692618513
14.002,150.4,0.492,45.1,,,,,3.9990000000000006,0.492,177.4,45.1,,152.43120638216664
14.031,150.6,0.488,44.9,,,,,4.0280000000000005,0.488,177.6,44.9,,152.57218854630867
14.052,150.8,0.486,44.6,,,,,4.0489999999999995,0.486,177.8,44.6,,152.6150851049722
14.072,151.0,0.481,44.9,,,,,4.068999999999999,0.481,178.0,44.9,,152.8625533574529
14.093,151.2,0.477,44.9,,,,,4.09,0.477,178.2,44.9,,153.02597979661076
14.109,151.3,0.475,44.6,,,,,4.106,0.475,178.3,44.6,,153.0673718729583
14.127,151.5,0.472,44.4,,,,,4.1240000000000006,0.472,178.5,44.4,,153.1620815373919
14.148,151.8,0.468,44.6,,,,,4.145,0.468,178.8,44.6,,153.3480422010291
14.172,152.0,0.465,44.7,,,,,4.1690000000000005,0.465,179.0,44.7,,153.47954271994757
14.187,152.2,0.462,44.5,,,,,4.183999999999999,0.462,179.2,44.5,,153.57136401700077
14.204,152.4,0.461,44.7,,,,,4.2010000000000005,0.461,179.4,44.7,,153.6359476092733
14.224,152.6,0.457,45.2,,,,,4.221,0.457,179.6,45.2,,153.8538754834155
14.245,152.7,0.453,45.2,,,,,4.241999999999999,0.453,179.7,45.2,,154.00604826855138
14.272,152.9,0.451,44.8,,,,,4.269,0.451,179.9,44.8,,154.03150914235215
14.289,153.1,0.449,44.6,,,,,4.286,0.449,180.1,44.6,,154.0818349089969
14.309,153.3,0.448,44.7,,,,,4.305999999999999,0.448,180.3,44.7,,154.13172521492507
14.328,153.4,0.445,45.0,,,,,4.324999999999999,0.445,180.4,45.0,,154.28034040553567
14.343,153.6,0.443,45.1,,,,,4.34,0.443,180.6,45.1,,154.36629525566485
14.359,153.7,0.439,45.0,,,,,4.356,0.439,180.7,45.0,,154.500109694001
14.391,153.9,0.438,45.0,,,,,4.388,0.438,180.9,45.0,,154.53634076850724
14.409,154.0,0.437,44.9,,,,,4.406000000000001,0.437,181.0,44.9,,154.5603917854927
