time,length,pressure,force,time_contraction,pressure_contraction,length_contraction,force_contraction,time_extension,pressure_extension,length_extension,force_extension,estimated_contraction_length,estimated_extension_length
10.007,195.8,0.418,94.1,0.0,0.418,229.8,94.1,,,,,191.1938009334376,
10.02,195.8,0.42,94.3,0.0129999999999999,0.42,229.8,94.3,,,,,191.1500770850819,
10.032,195.8,0.42,94.5,0.025000000000000355,0.42,229.8,94.5,,,,,191.16569034783473,
10.044,195.8,0.42,94.6,0.03700000000000081,0.42,229.8,94.6,,,,,191.17349381951328,
10.057,195.8,0.42,94.7,0.05000000000000071,0.42,229.8,94.7,,,,,191.1812951847266,
10.067,195.8,0.421,94.8,0.0600000000000005,0.421,229.8,94.8,,,,,191.1594001353439,
10.08,195.8,0.421,95.0,0.0730000000000004,0.421,229.8,95.0,,,,,191.17503897694226,
10.09,195.8,0.421,95.2,0.08300000000000018,0.421,229.8,95.2,,,,,191.1906693926797,
10.102,195.8,0.422,95.4,0.09500000000000064,0.422,229.8,95.4,,,,,191.17661381032661,
10.114,195.8,0.422,95.6,0.1070000000000011,0.422,229.8,95.6,,,,,191.19227401784002,
10.126,195.8,0.422,95.8,0.11899999999999977,0.422,229.8,95.8,,,,,191.2079257994925,
10.139,195.8,0.423,95.9,0.13199999999999967,0.423,229.8,95.9,,,,,191.18606437254363,
10.15,195.8,0.423,96.1,0.14300000000000068,0.423,229.8,96.1,,,,,191.2017501589026,
10.163,195.8,0.424,96.3,0.15600000000000058,0.424,229.8,96.3,,,,,191.18771345372667,
10.176,195.8,0.426,96.5,0.16900000000000048,0.426,229.8,96.5,,,,,191.14372460373215,
10.188,195.8,0.426,96.8,0.18100000000000094,0.426,229.8,96.8,,,,,191.16742210293904,
10.2,195.8,0.427,97.4,0.19299999999999962,0.427,229.8,97.4,,,,,191.18493311657852,
10.213,195.8,0.429,97.9,0.20599999999999952,0.429,229.8,97.9,,,,,191.16464964735925,
10.225,195.7,0.434,98.6,0.21799999999999997,0.434,229.7,98.6,,,,,191.0693815338575,
10.237,195.7,0.435,100.0,0.23000000000000043,0.435,229.7,100.0,,,,,191.15159409928947,
10.249,195.6,0.438,101.3,0.24200000000000088,0.438,229.6,101.3,,,,,191.16546802143796,
10.261,195.5,0.44,102.3,0.25399999999999956,0.44,229.5,102.3,,,,,191.1857249118978,
10.274,195.4,0.442,103.1,0.26699999999999946,0.442,229.4,103.1,,,,,191.1899425655971,
10.285,195.2,0.446,103.2,0.27800000000000047,0.446,229.2,103.2,,,,,191.07555654317406,
10.294,195.0,0.451,103.2,0.2870000000000008,0.451,229.0,103.2,,,,,190.91963289413306,
10.306,194.7,0.454,104.0,0.2989999999999995,0.454,228.7,104.0,,,,,190.8918465779107,
10.319,194.4,0.454,104.2,0.31200000000000117,0.454,228.4,104.2,,,,,190.90863706533634,
10.331,194.0,0.455,104.0,0.32399999999999984,0.455,228.0,104.0,,,,,190.86010925453925,
10.343,193.7,0.46,103.0,0.3360000000000003,0.46,227.7,103.0,,,,,190.61409658881524,
10.356,193.4,0.465,102.4,0.3490000000000002,0.465,227.4,102.4,,,,,190.3972284600235,
10.367,193.1,0.468,102.2,0.3600000000000012,0.468,227.1,102.2,,,,,190.27894271148534,
10.38,192.8,0.473,102.5,0.3730000000000011,0.473,226.8,102.5,,,,,190.13492723007766,
10.393,192.5,0.476,102.7,0.386000000000001,0.476,226.5,102.7,,,,,190.04915394404833,
10.405,192.3,0.479,103.1,0.3979999999999997,0.479,226.3,103.1,,,,,189.9805462589216,
10.418,192.0,0.483,102.8,0.4109999999999996,0.483,226.0,102.8,,,,,189.81241135932268,
10.43,191.7,0.489,103.2,0.42300000000000004,0.489,225.7,103.2,,,,,189.6339631793658,
10.446,191.4,0.494,103.3,0.43900000000000006,0.494,225.4,103.3,,,,,189.46089871156715,
10.466,191.1,0.497,103.9,0.45899999999999963,0.497,225.1,103.9,,,,,189.40649571731353,
10.486,190.8,0.499,103.5,0.479000000000001,0.499,224.8,103.5,,,,,189.29444390442052,
10.506,190.5,0.505,103.2,0.49900000000000055,0.505,224.5,103.2,,,,,189.0394084986706,
10.523,190.2,0.509,103.5,0.516,0.509,224.2,103.5,,,,,188.91492325998104,
10.543,189.9,0.517,103.2,0.5359999999999996,0.517,223.9,103.2,,,,,188.5727957966127,
10.564,189.6,0.52,103.6,0.5570000000000004,0.52,223.6,103.6,,,,,188.49316764036874,
10.585,189.3,0.523,103.8,0.5780000000000012,0.523,223.3,103.8,,,,,188.39293943668153,
10.605,189.0,0.525,103.8,0.5980000000000008,0.525,223.0,103.8,,,,,188.31224745458817,
10.626,188.6,0.532,103.6,0.6189999999999998,0.532,222.6,103.6,,,,,188.00549935561423,
10.647,188.3,0.538,103.6,0.6400000000000006,0.538,222.3,103.6,,,,,187.75501270524313,
10.664,188.0,0.541,103.8,0.657,0.541,222.0,103.8,,,,,187.64897157652433,
10.686,187.7,0.547,103.5,0.6790000000000003,0.547,221.7,103.5,,,,,187.3603913427699,
10.704,187.5,0.55,103.3,0.697000000000001,0.55,221.5,103.3,,,,,187.20879091760426,
10.724,187.2,0.556,103.7,0.7170000000000005,0.556,221.2,103.7,,,,,186.98772626335372,
10.744,186.9,0.56,103.9,0.7370000000000001,0.56,220.9,103.9,,,,,186.83124188458896,
10.765,186.6,0.564,104.0,0.7580000000000009,0.564,220.6,104.0,,,,,186.66218942513663,
10.786,186.3,0.572,103.8,0.7789999999999999,0.572,220.3,103.8,,,,,186.2741273021544,
10.806,186.1,0.582,103.6,0.7989999999999995,0.582,220.1,103.6,,,,,185.78259655079427,
10.826,185.8,0.583,104.0,0.8190000000000008,0.583,219.8,104.0,,,,,185.78063730748315,
10.847,185.5,0.583,104.1,0.8399999999999999,0.583,219.5,104.1,,,,,185.7920421100434,
10.864,185.2,0.588,104.4,0.8570000000000011,0.588,219.2,104.4,,,,,185.58733123898062,
10.884,185.0,0.597,104.0,0.8770000000000007,0.597,219.0,104.0,,,,,185.10261463834942,
10.904,184.7,0.602,104.2,0.8970000000000002,0.602,218.7,104.2,,,,,184.87830566706012,
10.925,184.5,0.605,104.1,0.918000000000001,0.605,218.5,104.1,,,,,184.7162498700292,
10.945,184.2,0.611,104.2,0.9380000000000006,0.611,218.2,104.2,,,,,184.4245593456864,
10.966,183.9,0.615,104.3,0.9589999999999996,0.615,217.9,104.3,,,,,184.23183814015658,
10.985,183.7,0.619,104.2,0.9779999999999998,0.619,217.7,104.2,,,,,184.01285204995452,
11.002,183.5,0.626,103.9,0.995000000000001,0.626,217.5,103.9,,,,,183.60891753678823,
11.023,183.2,0.631,104.0,1.016,0.631,217.2,104.0,,,,,183.35546136870437,
11.043,183.0,0.636,104.5,1.0359999999999996,0.636,217.0,104.5,,,,,183.1496988031995,
11.064,182.8,0.641,104.7,1.0570000000000004,0.641,216.8,104.7,,,,,182.90374796186646,
11.085,182.5,0.647,104.4,1.0780000000000012,0.647,216.5,104.4,,,,,182.53557069694355,
11.105,182.3,0.651,104.5,1.0980000000000008,0.651,216.3,104.5,,,,,182.3261314141201,
11.125,182.1,0.653,104.2,1.1180000000000003,0.653,216.1,104.2,,,,,182.17513510406368,
11.145,181.8,0.659,103.9,1.138,0.659,215.8,103.9,,,,,181.79651699607285,
11.162,181.7,0.665,103.9,1.1550000000000011,0.665,215.7,103.9,,,,,181.4525758577136,
11.18,181.5,0.669,103.9,1.173,0.669,215.5,103.9,,,,,181.22081787362453,
11.203,181.3,0.675,104.2,1.1959999999999997,0.675,215.3,104.2,,,,,180.91013627010824,
11.224,181.1,0.679,104.4,1.2170000000000005,0.679,215.1,104.4,,,,,180.70100721190062,
11.244,180.9,0.684,104.5,1.237,0.684,214.9,104.5,,,,,180.41671304090187,
11.265,180.7,0.688,104.5,1.258000000000001,0.688,214.7,104.5,,,,,180.1761519897592,
11.285,180.5,0.693,104.6,1.2780000000000005,0.693,214.5,104.6,,,,,179.88663846011895,
11.305,180.3,0.697,104.5,1.298,0.697,214.3,104.5,,,,,179.6276827410282,
11.323,180.1,0.701,104.4,1.3160000000000007,0.701,214.1,104.4,,,,,179.36656722800092,
11.343,179.9,0.704,104.0,1.3360000000000003,0.704,213.9,104.0,,,,,179.1230840441267,
11.363,179.8,0.709,103.5,1.3559999999999999,0.709,213.8,103.5,,,,,178.73742392912553,
11.384,179.6,0.713,103.4,1.3770000000000007,0.713,213.6,103.4,,,,,178.46916128006134,
11.404,179.5,0.718,103.7,1.3970000000000002,0.718,213.5,103.7,,,,,178.19269738053504,
11.424,179.4,0.721,104.2,1.4169999999999998,0.721,213.4,104.2,,,,,178.0724623655637,
11.445,179.3,0.724,104.5,1.4380000000000006,0.724,213.3,104.5,,,,,177.9224024228902,
11.464,179.1,0.729,104.5,1.4570000000000007,0.729,213.1,104.5,,,,,177.5967542039848,
11.482,178.9,0.734,104.5,1.4749999999999996,0.734,212.9,104.5,,,,,177.26802612026745,
11.503,178.8,0.736,104.4,1.4960000000000004,0.736,212.8,104.4,,,,,177.1207079203441,
11.522,178.6,0.739,104.0,1.5150000000000006,0.739,212.6,104.0,,,,,176.86102425940624,
11.543,178.5,0.743,103.7,1.5359999999999996,0.743,212.5,103.7,,,,,176.54747247696972,
11.564,178.4,0.747,103.7,1.5570000000000004,0.747,212.4,103.7,,,,,176.27709120603546,
11.581,178.2,0.75,103.8,1.5739999999999998,0.75,212.2,103.8,,,,,176.08831756364478,
11.604,178.1,0.753,103.7,1.5969999999999995,0.753,212.1,103.7,,,,,175.8678234618597,
11.621,178.1,0.756,103.6,1.6140000000000008,0.756,212.1,103.6,,,,,175.6460785717834,
11.641,178.0,0.761,103.8,1.6340000000000003,0.761,212.0,103.8,,,,,175.33079663238271,
11.662,177.9,0.763,104.0,1.6550000000000011,0.763,211.9,104.0,,,,,175.2226757784083,
11.679,177.8,0.765,104.2,1.6720000000000006,0.765,211.8,104.2,,,,,175.11424029419464,
11.702,177.7,0.768,104.2,1.6950000000000003,0.768,211.7,104.2,,,,,174.9038581160133,
11.723,177.6,0.77,104.0,1.716000000000001,0.77,211.6,104.0,,,,,174.73145752483322,
11.743,177.5,0.773,103.8,1.7360000000000007,0.773,211.5,103.8,,,,,174.48740930815285,
11.764,177.4,0.778,103.7,1.7569999999999997,0.778,211.4,103.7,,,,,174.114803289875,
11.784,177.3,0.779,103.9,1.777000000000001,0.779,211.3,103.9,,,,,174.07504321632942,
11.801,177.2,0.78,103.9,1.7940000000000005,0.78,211.2,103.9,,,,,174.00324432865324,
11.821,177.2,0.783,103.7,1.814,0.783,211.2,103.7,,,,,173.7549596610421,
11.842,177.1,0.785,103.6,1.8350000000000009,0.785,211.1,103.6,,,,,173.594035625652,
11.862,177.0,0.787,103.6,1.8550000000000004,0.787,211.0,103.6,,,,,173.44869639010363,
11.883,177.0,0.787,103.6,1.8759999999999994,0.787,211.0,103.6,,,,,173.44869639010363,
11.903,176.9,0.79,103.6,1.8960000000000008,0.79,210.9,103.6,,,,,173.22976357733754,
11.924,176.9,0.791,103.6,1.9169999999999998,0.791,210.9,103.6,,,,,173.15653958389723,
11.944,176.8,0.792,103.4,1.9370000000000012,0.792,210.8,103.4,,,,,173.05061112856419,
11.961,176.8,0.795,103.5,1.9540000000000006,0.795,210.8,103.5,,,,,172.84605211854677,
11.982,176.8,0.795,103.7,1.9749999999999996,0.795,210.8,103.7,,,,,172.87876910341024,
12.002,176.7,0.796,103.7,1.995000000000001,0.796,210.7,103.7,,,,,172.80495245875647,
12.023,176.7,0.797,103.7,2.016,0.797,210.7,103.7,,,,,172.73101261951024,
12.043,176.6,0.8,103.6,2.0359999999999996,0.8,210.6,103.6,,,,,172.49197988627273,
12.063,176.6,0.8,103.5,2.056000000000001,0.8,210.6,103.5,,,,,172.4755037318636,
12.082,176.6,0.801,103.4,2.075000000000001,0.801,210.6,103.4,,,,,172.38452288812624,
12.1,176.5,0.802,103.5,2.093,0.802,210.5,103.5,,,,,172.326422015043,
12.121,176.5,0.802,103.5,2.1140000000000008,0.802,210.5,103.5,,,,,172.326422015043,
12.141,176.5,0.802,103.4,2.1340000000000003,0.802,210.5,103.4,,,,,172.30989711067073,
12.162,176.5,0.802,103.4,2.155000000000001,0.802,210.5,103.4,,,,,172.30989711067073,
12.182,176.5,0.803,103.4,2.1750000000000007,0.803,210.5,103.4,,,,,172.23514813862275,
12.202,176.5,0.803,103.4,,,,,2.1950000000000003,0.803,210.5,103.4,,168.94195607558018
12.223,176.5,0.803,103.4,,,,,2.216000000000001,0.803,210.5,103.4,,168.94195607558018
12.243,176.5,0.802,103.4,,,,,2.2360000000000007,0.802,210.5,103.4,,169.03203019895966
12.26,176.5,0.802,103.2,,,,,2.253,0.802,210.5,103.2,,169.003015163666
12.28,176.5,0.802,103.2,,,,,2.2729999999999997,0.802,210.5,103.2,,169.003015163666
12.301,176.5,0.802,103.2,,,,,2.2940000000000005,0.802,210.5,103.2,,169.003015163666
12.322,176.5,0.802,103.1,,,,,2.3149999999999995,0.802,210.5,103.1,,168.98850726894037
12.342,176.5,0.801,103.1,,,,,2.335000000000001,0.801,210.5,103.1,,169.07850066470152
12.363,176.5,0.8,103.0,,,,,2.356,0.8,210.5,103.0,,169.15388677376623
12.383,176.5,0.798,102.8,,,,,2.3759999999999994,0.798,210.5,102.8,,169.3043608159832
12.401,176.5,0.798,102.6,,,,,2.394,0.798,210.5,102.6,,169.27549006779228
12.421,176.5,0.795,102.3,,,,,2.4139999999999997,0.795,210.5,102.3,,169.50056466082117
12.441,176.5,0.796,102.0,,,,,2.434000000000001,0.796,210.5,102.0,,169.36803996808308
12.462,176.5,0.793,101.7,,,,,2.455,0.793,210.5,101.7,,169.59273614825634
12.481,176.5,0.792,101.3,,,,,2.474,0.792,210.5,101.3,,169.62445197518244
12.501,176.5,0.79,100.9,,,,,2.4939999999999998,0.79,210.5,100.9,,169.74507796647617
12.522,176.5,0.789,100.5,,,,,2.5150000000000006,0.789,210.5,100.5,,169.7767461088328
12.543,176.5,0.789,100.2,,,,,2.5359999999999996,0.789,210.5,100.2,,169.73391941394254
12.558,176.5,0.785,99.9,,,,,2.551,0.785,210.5,99.9,,170.04553484129576
12.578,176.5,0.784,99.5,,,,,2.5709999999999997,0.784,210.5,99.5,,170.07706548462588
12.602,176.5,0.783,99.0,,,,,2.5950000000000006,0.783,210.5,99.0,,170.09443508781735
12.618,176.5,0.779,98.5,,,,,2.6110000000000007,0.779,210.5,98.5,,170.37580185554066
12.642,176.5,0.776,98.0,,,,,2.635,0.776,210.5,98.0,,170.56832606540573
12.661,176.5,0.774,97.4,,,,,2.654,0.774,210.5,97.4,,170.6589485609233
12.681,176.6,0.77,96.8,,,,,2.6739999999999995,0.77,210.6,96.8,,170.92347291938222
12.702,176.6,0.768,96.4,,,,,2.6950000000000003,0.768,210.6,96.4,,171.04134864248002
12.722,176.6,0.765,95.9,,,,,2.715,0.765,210.6,95.9,,171.23153229179104
12.739,176.7,0.764,95.6,,,,,2.732000000000001,0.764,210.7,95.6,,171.27634024633397
12.759,176.8,0.761,95.3,,,,,2.7520000000000007,0.761,210.8,95.3,,171.49323830906255
12.78,176.8,0.759,95.1,,,,,2.7729999999999997,0.759,210.8,95.1,,171.63734005769416
12.8,176.9,0.757,95.0,,,,,2.793000000000001,0.757,210.9,95.0,,171.79474416331
12.822,176.9,0.754,94.8,,,,,2.8149999999999995,0.754,210.9,94.8,,172.0231456986484
12.84,177.0,0.751,94.7,,,,,2.833,0.751,211.0,94.7,,172.2641336866042
12.862,177.1,0.75,94.7,,,,,2.8550000000000004,0.75,211.1,94.7,,172.3487394791328
12.879,177.2,0.746,94.6,,,,,2.872,0.746,211.2,94.6,,172.67230484767285
12.899,177.2,0.743,94.6,,,,,2.8919999999999995,0.743,211.2,94.6,,172.9237300668306
12.919,177.3,0.741,94.4,,,,,2.912000000000001,0.741,211.3,94.4,,173.06385414973562
12.94,177.4,0.736,94.3,,,,,2.933,0.736,211.4,94.3,,173.4656865549013
12.957,177.5,0.731,94.0,,,,,2.950000000000001,0.731,211.5,94.0,,173.83785702636197
12.981,177.6,0.728,93.7,,,,,2.974,0.728,211.6,93.7,,174.04398904335983
13.0,177.8,0.723,93.4,,,,,2.9930000000000003,0.723,211.8,93.4,,174.41171062934413
13.022,178.0,0.718,93.3,,,,,3.0150000000000006,0.718,212.0,93.3,,174.802555615742
13.038,178.2,0.714,93.3,,,,,3.0310000000000006,0.714,212.2,93.3,,175.123246532473
13.056,178.4,0.712,93.6,,,,,3.0489999999999995,0.712,212.4,93.6,,175.32140152820043
13.079,178.6,0.706,94.2,,,,,3.072000000000001,0.706,212.6,94.2,,175.87297689485808
13.099,178.7,0.701,94.3,,,,,3.0920000000000005,0.701,212.7,94.3,,176.27718460832202
13.12,178.8,0.697,94.1,,,,,3.1129999999999995,0.697,212.8,94.1,,176.56269921862128
13.14,179.0,0.692,93.9,,,,,3.133000000000001,0.692,213.0,93.9,,176.92319900475638
13.161,179.1,0.688,93.6,,,,,3.154,0.688,213.1,93.6,,177.19201015199187
13.181,179.3,0.684,93.2,,,,,3.1739999999999995,0.684,213.3,93.2,,177.44672543179897
13.202,179.5,0.677,93.3,,,,,3.1950000000000003,0.677,213.5,93.3,,177.98650690816322
13.218,179.7,0.673,93.2,,,,,3.2110000000000003,0.673,213.7,93.2,,178.2727418066755
13.239,179.9,0.67,93.4,,,,,3.232000000000001,0.67,213.9,93.4,,178.51936799221596
13.256,180.2,0.665,93.5,,,,,3.2490000000000006,0.665,214.2,93.5,,178.89917739535326
13.28,180.4,0.658,93.5,,,,,3.2729999999999997,0.658,214.4,93.5,,179.408257491398
13.3,180.6,0.651,93.4,,,,,3.293000000000001,0.651,214.6,93.4,,179.89892330685706
13.321,180.7,0.648,93.4,,,,,3.314,0.648,214.7,93.4,,180.11226093512013
13.339,180.9,0.646,93.3,,,,,3.3320000000000007,0.646,214.9,93.3,,180.24214608029226
13.361,181.1,0.64,93.2,,,,,3.354000000000001,0.64,215.1,93.2,,180.65207923907593
13.377,181.3,0.635,93.1,,,,,3.370000000000001,0.635,215.3,93.1,,180.98821002353637
13.398,181.5,0.627,92.8,,,,,3.391,0.627,215.5,92.8,,181.50349543130451
13.419,181.7,0.622,92.4,,,,,3.412000000000001,0.622,215.7,92.4,,181.79773439153612
13.439,182.0,0.618,92.2,,,,,3.4320000000000004,0.618,216.0,92.2,,182.04458266360572
13.458,182.3,0.613,92.3,,,,,3.4510000000000005,0.613,216.3,92.3,,182.3891910923686
13.481,182.6,0.609,92.6,,,,,3.474,0.609,216.6,92.6,,182.68645586147025
13.5,182.8,0.604,93.1,,,,,3.4930000000000003,0.604,216.8,93.1,,183.06796239287124
13.518,183.1,0.597,93.3,,,,,3.511000000000001,0.597,217.1,93.3,,183.5410168476197
13.538,183.4,0.592,93.4,,,,,3.5310000000000006,0.592,217.4,93.4,,183.86994664126107
13.559,183.6,0.588,93.5,,,,,3.5519999999999996,0.588,217.6,93.5,,184.1326286852368
13.578,183.8,0.583,93.5,,,,,3.5709999999999997,0.583,217.8,93.5,,184.44459004834437
13.599,184.1,0.578,93.1,,,,,3.5920000000000005,0.578,218.1,93.1,,184.7115196416657
13.62,184.3,0.574,93.1,,,,,3.6129999999999995,0.574,218.3,93.1,,184.95621661192536
13.64,184.5,0.57,92.9,,,,,3.633000000000001,0.57,218.5,92.9,,185.17821491362903
13.661,184.7,0.566,92.8,,,,,3.654,0.566,218.7,92.8,,185.40851993169412
13.681,185.0,0.559,92.5,,,,,3.6739999999999995,0.559,219.0,92.5,,185.79409764792635
13.698,185.3,0.553,92.5,,,,,3.6910000000000007,0.553,219.3,92.5,,186.14548998792782
13.719,185.6,0.55,92.4,,,,,3.7119999999999997,0.55,219.6,92.4,,186.3094558845107
13.739,185.9,0.545,92.4,,,,,3.732000000000001,0.545,219.9,92.4,,186.59659632232064
13.76,186.2,0.539,93.0,,,,,3.753,0.539,220.2,93.0,,186.99482727853706
13.78,186.5,0.536,92.9,,,,,3.7729999999999997,0.536,220.5,92.9,,187.15306542531727
13.8,186.8,0.531,93.1,,,,,3.793000000000001,0.531,220.8,93.1,,187.4493148755534
13.82,187.1,0.527,93.2,,,,,3.8130000000000006,0.527,221.1,93.2,,187.67791960787574
13.841,187.3,0.523,93.3,,,,,3.8339999999999996,0.523,221.3,93.3,,187.90420132078762
13.857,187.5,0.519,93.1,,,,,3.8499999999999996,0.519,221.5,93.1,,188.1001942771805
13.878,187.8,0.515,92.9,,,,,3.8710000000000004,0.515,221.8,92.9,,188.29430537120444
13.895,188.0,0.511,92.8,,,,,3.888,0.511,222.0,92.8,,188.49571046842524
13.915,188.3,0.506,92.9,,,,,3.9079999999999995,0.506,222.3,92.9,,188.76505272519609
13.935,188.6,0.501,92.6,,,,,3.928000000000001,0.501,222.6,92.6,,188.99484499713296
13.959,188.9,0.5,92.2,,,,,3.952,0.5,222.9,92.2,,189.00994902127178
13.975,189.2,0.495,92.5,,,,,3.968,0.495,223.2,92.5,,189.28992875012196
13.998,189.5,0.489,93.2,,,,,3.9909999999999997,0.489,223.5,93.2,,189.6505036495249
14.018,189.8,0.486,93.0,,,,,4.011000000000001,0.486,223.8,93.0,,189.78044270463263
14.038,190.1,0.483,93.0,,,,,4.031000000000001,0.483,224.1,93.0,,189.92669786197533
14.057,190.3,0.479,93.0,,,,,4.050000000000001,0.479,224.3,93.0,,190.11980120717712
14.078,190.6,0.476,93.3,,,,,4.071,0.476,224.6,93.3,,190.28879228620826
14.099,190.9,0.473,93.3,,,,,4.0920000000000005,0.473,224.9,93.3,,190.43080273130462
14.119,191.1,0.47,93.6,,,,,4.112,0.47,225.1,93.6,,190.59684700043607
14.14,191.3,0.466,93.9,,,,,4.133000000000001,0.466,225.3,93.9,,190.80747248011812
14.157,191.6,0.462,93.4,,,,,4.15,0.462,225.6,93.4,,190.94931039664073
14.174,191.8,0.459,92.9,,,,,4.167,0.459,225.8,92.9,,191.04446808028345
14.197,192.0,0.457,92.6,,,,,4.1899999999999995,0.457,226.0,92.6,,191.1102574228758
14.218,192.2,0.454,92.9,,,,,4.211,0.454,226.2,92.9,,191.26928342813662
14.238,192.5,0.451,93.1,,,,,4.231,0.451,226.5,93.1,,191.41868195683676
14.258,192.7,0.449,92.8,,,,,4.2509999999999994,0.449,226.7,92.8,,191.4826656027853
14.28,192.9,0.446,92.7,,,,,4.273,0.446,226.9,92.7,,191.60595993167016
14.295,193.2,0.443,93.0,,,,,4.288,0.443,227.2,93.0,,191.75983542087346
14.316,193.4,0.442,93.6,,,,,4.309000000000001,0.442,227.4,93.6,,191.8503004756997
14.336,193.6,0.44,93.5,,,,,4.329000000000001,0.44,227.6,93.5,,191.92788733739496
14.357,193.8,0.438,93.5,,,,,4.35,0.438,227.8,93.5,,192.01283369279892
14.374,193.9,0.437,93.4,,,,,4.367000000000001,0.437,227.9,93.4,,192.04729137438926
14.397,194.1,0.434,93.7,,,,,4.390000000000001,0.434,228.1,93.7,,192.19660666609946
14.418,194.2,0.432,93.5,,,,,4.411,0.432,228.2,93.5,,192.2644095625735
