time,length,pressure,force,time_contraction,pressure_contraction,length_contraction,force_contraction,time_extension,pressure_extension,length_extension,force_extension,estimated_contraction_length,estimated_extension_length,Estimated_Stretched_Length_Contraction,Estimated_Unstretched_Length_Contraction,Estimated_Stretched_Length_Extension,Estimated_Unstretched_Length_Extension,Estimated_Length_Contraction,Estimated_Length_Extension,real_length_contraction,Real_Estimated_Length_Contraction,real_length_extension,Real_Estimated_Length_Extension,real_length,time_elapsed
10.021,159.7,0.219,46.2,0.0,0.219,189.7,46.2,,,,,156.6122985201143,,15.280753046645204,161.5631,,,176.8438530466452,,153.7,151.8438530466452,,,153.7,0.0
10.039,159.7,0.222,46.4,0.0179999999999989,0.222,189.7,46.4,,,,,156.6070226606623,,15.315988771352368,161.4878,,,176.80378877135237,,153.7,151.80378877135237,,,153.7,0.0179999999999989
10.067,159.7,0.224,46.8,0.0459999999999993,0.224,189.7,46.8,,,,,156.60564908995596,,15.418226095510473,161.4376,,,176.85582609551048,,153.7,151.85582609551048,,,153.7,0.0459999999999993
10.076,159.6,0.227,47.3,0.0549999999999997,0.227,189.6,47.3,,,,,156.60266268001354,,15.540743858513059,161.3623,,,176.90304385851306,,153.6,151.90304385851306,,,153.6,0.0549999999999997
10.106,159.6,0.229,47.8,0.084999999999999,0.229,189.6,47.8,,,,,156.60209442388515,,15.670463322613987,161.31210000000002,,,176.982563322614,,153.6,151.982563322614,,,153.6,0.084999999999999
10.126,159.6,0.23,48.5,0.1049999999999986,0.23,189.6,48.5,,,,,156.60586329440144,,15.866223888375353,161.287,,,177.15322388837535,,153.6,152.15322388837535,,,153.6,0.1049999999999986
10.147,159.6,0.234,49.1,0.1259999999999994,0.234,189.6,49.1,,,,,156.6011553191371,,16.00467296639609,161.1866,,,177.1912729663961,,153.6,152.1912729663961,,,153.6,0.1259999999999994
10.167,159.6,0.236,49.7,0.145999999999999,0.236,189.6,49.7,,,,,156.60155748752874,,16.159444725742198,161.1364,,,177.2958447257422,,153.6,152.2958447257422,,,153.6,0.145999999999999
10.184,159.5,0.239,50.4,0.1629999999999984,0.239,189.5,50.4,,,,,156.6002831382712,,16.332005692050874,161.0611,,,177.39310569205088,,153.5,152.39310569205088,,,153.5,0.1629999999999984
10.207,159.3,0.241,50.9,0.1859999999999999,0.241,189.3,50.9,,,,,156.599755579432,,16.45532519752419,161.0109,,,177.46622519752418,,153.3,152.46622519752418,,,153.3,0.1859999999999999
10.217,159.0,0.245,50.9,0.1959999999999997,0.245,189.0,50.9,,,,,156.5884997839603,,16.41709702586661,160.9105,,,177.32759702586662,,153.0,152.32759702586662,,,153.0,0.1959999999999997
10.244,158.7,0.249,50.9,0.2229999999999989,0.249,188.7,50.9,,,,,156.57665058165415,,16.37943124916812,160.8101,,,177.1895312491681,,152.7,152.1895312491681,,,152.7,0.2229999999999989
10.266,158.4,0.252,50.7,0.2449999999999992,0.252,188.4,50.7,,,,,156.56523188301165,,16.295732473188856,160.7348,,,177.03053247318886,,152.4,152.03053247318886,,,152.4,0.2449999999999992
10.282,158.2,0.255,50.4,0.2609999999999992,0.255,188.2,50.4,,,,,156.55228500686292,,16.185037408117523,160.6595,,,176.84453740811753,,152.2,151.84453740811753,,,152.2,0.2609999999999992
10.304,157.9,0.258,50.2,0.2829999999999995,0.258,187.9,50.2,,,,,156.53994021558108,,16.103072298322612,160.5842,,,176.68727229832263,,151.9,151.68727229832263,,,151.9,0.2829999999999995
10.327,157.7,0.262,50.0,0.3059999999999991,0.262,187.7,50.0,,,,,156.52349453616577,,16.013392187834945,160.4838,,,176.49719218783494,,151.7,151.49719218783494,,,151.7,0.3059999999999991
10.338,157.5,0.267,50.1,0.3169999999999984,0.267,187.5,50.1,,,,,156.50589486680954,,15.99870708509808,160.3583,,,176.3570070850981,,151.5,151.3570070850981,,,151.5,0.3169999999999984
10.365,157.3,0.271,50.3,0.3439999999999994,0.271,187.3,50.3,,,,,156.49252208021463,,16.019843587196466,160.2579,,,176.27774358719648,,151.3,151.27774358719648,,,151.3,0.3439999999999994
10.384,157.1,0.275,50.5,0.3629999999999995,0.275,187.1,50.5,,,,,156.47854512978284,,16.040819481061845,160.1575,,,176.19831948106184,,151.1,151.19831948106184,,,151.1,0.3629999999999995
10.401,156.9,0.277,50.8,0.379999999999999,0.277,186.9,50.8,,,,,156.47387952651786,,16.104920666656533,160.1073,,,176.21222066665655,,150.9,151.21222066665655,,,150.9,0.379999999999999
10.425,156.7,0.282,50.8,0.4039999999999999,0.282,186.7,50.8,,,,,156.45192339564727,,16.06387096386805,159.9818,,,176.04567096386805,,150.7,151.04567096386805,,,150.7,0.4039999999999999
10.442,156.5,0.286,50.8,0.4209999999999994,0.286,186.5,50.8,,,,,156.43345159004238,,16.03168394970325,159.8814,,,175.91308394970326,,150.5,150.91308394970326,,,150.5,0.4209999999999994
10.458,156.3,0.29,50.9,0.4369999999999994,0.29,186.3,50.9,,,,,156.41556035702786,,16.0263632269117,159.781,,,175.80736322691172,,150.3,150.80736322691172,,,150.3,0.4369999999999994
10.485,156.1,0.294,51.0,0.4639999999999986,0.294,186.1,51.0,,,,,156.39690406346242,,16.021293907760512,159.6806,,,175.7018939077605,,150.1,150.7018939077605,,,150.1,0.4639999999999986
10.493,155.8,0.299,50.8,0.4719999999999995,0.299,185.8,50.8,,,,,156.3675592461119,,15.931101419747346,159.5551,,,175.48620141974735,,149.8,150.48620141974735,,,149.8,0.4719999999999995
10.527,155.6,0.304,50.7,0.5059999999999985,0.304,185.6,50.7,,,,,156.3381339569219,,15.868310026941861,159.4296,,,175.29791002694185,,149.6,150.29791002694185,,,149.6,0.5059999999999985
10.546,155.3,0.307,50.7,0.5249999999999986,0.307,185.3,50.7,,,,,156.32068911135104,,15.84664036770952,159.3543,,,175.2009403677095,,149.3,150.2009403677095,,,149.3,0.5249999999999986
10.565,155.1,0.311,50.6,0.5439999999999987,0.311,185.1,50.6,,,,,156.2949245704016,,15.792758327934383,159.2539,,,175.04665832793438,,149.1,150.04665832793438,,,149.1,0.5439999999999987
10.582,155.0,0.317,50.5,0.5609999999999999,0.317,185.0,50.5,,,,,156.25510970304694,,15.726215360257587,159.1033,,,174.82951536025757,,149.0,149.82951536025757,,,149.0,0.5609999999999999
10.606,154.8,0.322,50.6,0.5849999999999991,0.322,184.8,50.6,,,,,156.223404361194,,15.718145402483657,158.9778,,,174.69594540248366,,148.8,149.69594540248366,,,148.8,0.5849999999999991
10.624,154.6,0.327,50.8,0.6029999999999998,0.327,184.6,50.8,,,,,156.19210396390275,,15.735520205512243,158.8523,,,174.58782020551226,,148.6,149.58782020551226,,,148.6,0.6029999999999998
10.646,154.4,0.332,51.1,0.625,0.332,184.4,51.1,,,,,156.16138274690445,,15.777722954757134,158.7268,,,174.50452295475714,,148.4,149.50452295475714,,,148.4,0.625
10.658,154.3,0.334,51.2,0.6369999999999987,0.334,184.3,51.2,,,,,156.14834298805857,,15.789611694244803,158.6766,,,174.4662116942448,,148.3,149.4662116942448,,,148.3,0.6369999999999987
10.674,154.1,0.339,51.1,0.6529999999999987,0.339,184.1,51.1,,,,,156.10757411017622,,15.733910900637502,158.5511,,,174.2850109006375,,148.1,149.2850109006375,,,148.1,0.6529999999999987
10.706,153.9,0.345,51.1,0.6849999999999987,0.345,183.9,51.1,,,,,156.05869922762668,,15.69781395479962,158.4005,,,174.0983139547996,,147.9,149.0983139547996,,,147.9,0.6849999999999987
10.724,153.7,0.35,51.1,0.7029999999999994,0.35,183.7,51.1,,,,,156.01596942617522,,15.668760547808027,158.275,,,173.94376054780804,,147.7,148.94376054780804,,,147.7,0.7029999999999994
10.738,153.5,0.354,51.1,0.7169999999999987,0.354,183.5,51.1,,,,,155.9804436265624,,15.646190495229428,158.1746,,,173.82079049522943,,147.5,148.82079049522943,,,147.5,0.7169999999999987
10.762,153.3,0.359,50.9,0.7409999999999997,0.359,183.3,50.9,,,,,155.92950594365735,,15.57127307394011,158.0491,,,173.62037307394013,,147.3,148.62037307394013,,,147.3,0.7409999999999997
10.785,153.1,0.363,50.8,0.7639999999999993,0.363,183.1,50.8,,,,,155.88857776603783,,15.526639276244723,157.9487,,,173.4753392762447,,147.1,148.4753392762447,,,147.1,0.7639999999999993
10.806,152.9,0.37,50.9,0.7849999999999984,0.37,182.9,50.9,,,,,155.8207106817934,,15.515051600397209,157.773,,,173.2880516003972,,146.9,148.2880516003972,,,146.9,0.7849999999999984
10.826,152.8,0.373,51.0,0.8049999999999997,0.373,182.8,51.0,,,,,155.79200593687415,,15.523833614330158,157.6977,,,173.22153361433016,,146.8,148.22153361433016,,,146.8,0.8049999999999997
10.847,152.6,0.378,51.0,0.8259999999999987,0.378,182.6,51.0,,,,,155.7381447519967,,15.500169012351666,157.5722,,,173.0723690123517,,146.6,148.0723690123517,,,146.6,0.8259999999999987
10.865,152.5,0.383,50.9,0.8439999999999994,0.383,182.5,50.9,,,,,155.67929392411486,,15.454412568900889,157.4467,,,172.90111256890088,,146.5,147.90111256890088,,,146.5,0.8439999999999994
10.883,152.4,0.389,50.9,0.8619999999999983,0.389,182.4,50.9,,,,,155.60912779200171,,15.428545840642055,157.2961,,,172.72464584064204,,146.4,147.72464584064204,,,146.4,0.8619999999999983
10.905,152.2,0.394,51.1,0.8839999999999986,0.394,182.2,51.1,,,,,155.55440629192225,,15.453379498327422,157.1706,,,172.62397949832743,,146.2,147.62397949832743,,,146.2,0.8839999999999986
10.921,152.1,0.399,51.3,0.8999999999999986,0.399,182.1,51.3,,,,,155.49783231818444,,15.478479573659252,157.0451,,,172.52357957365925,,146.1,147.52357957365925,,,146.1,0.8999999999999986
10.938,152.0,0.402,51.5,0.9169999999999998,0.402,182.0,51.5,,,,,155.46558482450567,,15.511563778033114,156.9698,,,172.4813637780331,,146.0,147.4813637780331,,,146.0,0.9169999999999998
10.965,151.8,0.407,51.4,0.9439999999999992,0.407,181.8,51.4,,,,,155.39599273494727,,15.470353128858854,156.8443,,,172.31465312885885,,145.8,147.31465312885885,,,145.8,0.9439999999999992
10.982,151.6,0.413,51.4,0.9609999999999984,0.413,181.6,51.4,,,,,155.313246662182,,15.448977756798202,156.6937,,,172.1426777567982,,145.6,147.1426777567982,,,145.6,0.9609999999999984
11.006,151.5,0.42,51.4,0.9849999999999994,0.42,181.5,51.4,,,,,155.2122886294208,,15.425743551221258,156.518,,,171.94374355122125,,145.5,146.94374355122125,,,145.5,0.9849999999999994
11.018,151.4,0.423,51.2,0.997,0.423,181.4,51.2,,,,,155.1600481571399,,15.372758805597938,156.4427,,,171.81545880559793,,145.4,146.81545880559793,,,145.4,0.997
11.044,151.2,0.428,51.2,1.0229999999999997,0.428,181.2,51.2,,,,,155.0831957677492,,15.358123234926564,156.3172,,,171.67532323492657,,145.2,146.67532323492657,,,145.2,1.0229999999999997
11.064,151.1,0.433,51.2,1.0429999999999993,0.433,181.1,51.2,,,,,155.00377731746156,,15.344418626748295,156.1917,,,171.5361186267483,,145.1,146.5361186267483,,,145.1,1.0429999999999993
11.083,151.0,0.438,51.2,1.0619999999999994,0.438,181.0,51.2,,,,,154.9217478229669,,15.331644294489985,156.0662,,,171.39784429449,,145.0,146.39784429449,,,145.0,1.0619999999999994
11.091,150.9,0.442,51.4,1.0699999999999985,0.442,180.9,51.4,,,,,154.86265743502173,,15.364644674004412,155.9658,,,171.3304446740044,,144.9,146.3304446740044,,,144.9,1.0699999999999985
11.123,150.8,0.449,51.7,1.1019999999999983,0.449,180.8,51.7,,,,,154.75385874054774,,15.412119599713408,155.7901,,,171.2022195997134,,144.8,146.2022195997134,,,144.8,1.1019999999999983
11.14,150.7,0.453,51.8,1.1189999999999998,0.453,180.7,51.8,,,,,154.68655770248404,,15.42457856825663,155.68970000000002,,,171.11427856825665,,144.7,146.11427856825665,,,144.7,1.1189999999999998
11.166,150.6,0.457,51.7,1.1449999999999996,0.457,180.6,51.7,,,,,154.60850564319838,,15.395832848660287,155.5893,,,170.9851328486603,,144.6,145.9851328486603,,,144.6,1.1449999999999996
11.183,150.5,0.462,51.7,1.161999999999999,0.462,180.5,51.7,,,,,154.5140129069535,,15.386866756246347,155.4638,,,170.85066675624634,,144.5,145.85066675624634,,,144.5,1.161999999999999
11.2,150.3,0.466,51.5,1.1789999999999985,0.466,180.3,51.5,,,,,154.42664775089676,,15.339180846814244,155.3634,,,170.70258084681427,,144.3,145.70258084681427,,,144.3,1.1789999999999985
11.224,150.2,0.471,51.3,1.2029999999999994,0.471,180.2,51.3,,,,,154.31665939167752,,15.291142462291736,155.2379,,,170.52904246229173,,144.2,145.52904246229173,,,144.2,1.2029999999999994
11.244,150.2,0.477,51.2,1.222999999999999,0.477,180.2,51.2,,,,,154.18726355987206,,15.263849355242765,155.0873,,,170.35114935524277,,144.2,145.35114935524277,,,144.2,1.222999999999999
11.263,150.1,0.481,51.4,1.241999999999999,0.481,180.1,51.4,,,,,154.11258370564087,,15.30061839058792,154.9869,,,170.2875183905879,,144.1,145.2875183905879,,,144.1,1.241999999999999
11.284,150.0,0.486,51.5,1.263,0.486,180.0,51.5,,,,,154.00895977423804,,15.316606209216152,154.8614,,,170.17800620921616,,144.0,145.17800620921616,,,144.0,1.263
11.305,150.0,0.489,51.7,1.283999999999999,0.489,180.0,51.7,,,,,153.95320158419918,,15.354529499985548,154.7861,,,170.14062949998555,,144.0,145.14062949998555,,,144.0,1.283999999999999
11.323,149.9,0.493,51.8,1.3019999999999996,0.493,179.9,51.8,,,,,153.86824558593923,,15.37193037848708,154.6857,,,170.0576303784871,,143.9,145.0576303784871,,,143.9,1.3019999999999996
11.346,149.8,0.498,51.7,1.3249999999999993,0.498,179.8,51.7,,,,,153.74651127709046,,15.349762402940136,154.5602,,,169.90996240294015,,143.8,144.90996240294015,,,143.8,1.3249999999999993
11.362,149.7,0.503,51.7,1.3409999999999993,0.503,179.7,51.7,,,,,153.62724352599992,,15.348408966281397,154.4347,,,169.7831089662814,,143.7,144.7831089662814,,,143.7,1.3409999999999993
11.384,149.6,0.506,51.6,1.3629999999999995,0.506,179.6,51.6,,,,,153.54806540282488,,15.328446056758247,154.3594,,,169.68784605675825,,143.6,144.68784605675825,,,143.6,1.3629999999999995
11.405,149.5,0.51,51.5,1.3839999999999986,0.51,179.5,51.5,,,,,153.4424240571813,,15.30904931152274,154.25900000000001,,,169.56804931152274,,143.5,144.56804931152274,,,143.5,1.3839999999999986
11.419,149.4,0.515,51.4,1.3979999999999997,0.515,179.4,51.4,,,,,153.30861791241486,,15.290730149026047,154.1335,,,169.42423014902604,,143.4,144.42423014902604,,,143.4,1.3979999999999997
11.445,149.4,0.517,51.3,1.4239999999999997,0.517,179.4,51.3,,,,,153.2501893199258,,15.27208497735637,154.0833,,,169.35538497735638,,143.4,144.35538497735638,,,143.4,1.4239999999999997
11.457,149.3,0.521,51.3,1.436,0.521,179.3,51.3,,,,,153.14449958499645,,15.274107690342376,153.9829,,,169.2570076903424,,143.3,144.2570076903424,,,143.3,1.436
11.484,149.3,0.526,51.3,1.4629999999999992,0.526,179.3,51.3,,,,,153.00932449984774,,15.277460944996248,153.8574,,,169.13486094499626,,143.3,144.13486094499626,,,143.3,1.4629999999999992
11.502,149.2,0.53,51.4,1.481,0.53,179.2,51.4,,,,,152.90561154329512,,15.29988852671215,153.757,,,169.05688852671216,,143.2,144.05688852671216,,,143.2,1.481
11.516,149.1,0.533,51.4,1.4949999999999992,0.533,179.1,51.4,,,,,152.82129213602448,,15.302709846862829,153.6817,,,168.98440984686283,,143.1,143.98440984686283,,,143.1,1.4949999999999992
11.536,149.1,0.537,51.3,1.5149999999999988,0.537,179.1,51.3,,,,,152.69974878414746,,15.288059542828845,153.5813,,,168.86935954282885,,143.1,143.86935954282885,,,143.1,1.5149999999999988
11.562,149.0,0.541,51.3,1.5409999999999986,0.541,179.0,51.3,,,,,152.5829479613787,,15.293010153535077,153.4809,,,168.77391015353507,,143.0,143.77391015353507,,,143.0,1.5409999999999986
11.576,149.0,0.543,51.2,1.5549999999999995,0.543,179.0,51.2,,,,,152.51631178472783,,15.276898630505537,153.4307,,,168.70759863050554,,143.0,143.70759863050554,,,143.0,1.5549999999999995
11.603,148.9,0.547,51.2,1.581999999999999,0.547,178.9,51.2,,,,,152.3959194025032,,15.282815981611835,153.3303,,,168.61311598161183,,142.9,143.61311598161183,,,142.9,1.581999999999999
11.624,148.9,0.549,51.3,1.6029999999999998,0.549,178.9,51.3,,,,,152.3424493485903,,15.304662774194707,153.2801,,,168.5847627741947,,142.9,143.5847627741947,,,142.9,1.6029999999999998
11.642,148.9,0.553,51.5,1.6209999999999989,0.553,178.9,51.5,,,,,152.23416723099962,,15.348466052460973,153.1797,,,168.52816605246096,,142.9,143.52816605246096,,,142.9,1.6209999999999989
11.665,148.8,0.555,51.5,1.6439999999999984,0.555,178.8,51.5,,,,,152.17156094597533,,15.351944841799495,153.1295,,,168.48144484179952,,142.8,143.48144484179952,,,142.8,1.6439999999999984
11.678,148.8,0.558,51.5,1.657,0.558,178.8,51.5,,,,,152.07654028560978,,15.35743616521313,153.0542,,,168.41163616521314,,142.8,143.41163616521314,,,142.8,1.657
11.689,148.7,0.56,51.5,1.6679999999999993,0.56,178.7,51.5,,,,,152.01244815837106,,15.361279026726164,153.004,,,168.36527902672614,,142.7,143.36527902672614,,,142.7,1.6679999999999993
11.724,148.7,0.564,51.5,1.7029999999999994,0.564,178.7,51.5,,,,,151.8824628999124,,15.36940114390789,152.9036,,,168.2730011439079,,142.7,143.2730011439079,,,142.7,1.7029999999999994
11.743,148.7,0.566,51.5,1.7219999999999995,0.566,178.7,51.5,,,,,151.81656401082876,,15.373680238964182,152.8534,,,168.22708023896416,,142.7,143.22708023896416,,,142.7,1.7219999999999995
11.759,148.6,0.567,51.5,1.7379999999999995,0.567,178.6,51.5,,,,,151.78338674179065,,15.375874260033443,152.8283,,,168.20417426003345,,142.6,143.20417426003345,,,142.6,1.7379999999999995
11.784,148.6,0.57,51.5,1.763,0.57,178.6,51.5,,,,,151.6829393182936,,15.382674093696007,152.75300000000001,,,168.13567409369603,,142.6,143.13567409369603,,,142.6,1.763
11.802,148.6,0.572,51.5,1.7809999999999988,0.572,178.6,51.5,,,,,151.6152077569784,,15.387388687228945,152.7028,,,168.09018868722893,,142.6,143.09018868722893,,,142.6,1.7809999999999988
11.818,148.5,0.575,51.5,1.7969999999999988,0.575,178.5,51.5,,,,,151.51245329920033,,15.394732422818397,152.6275,,,168.0222324228184,,142.5,143.0222324228184,,,142.5,1.7969999999999988
11.836,148.5,0.577,51.4,1.8149999999999995,0.577,178.5,51.4,,,,,151.43452664914216,,15.381801760371863,152.5773,,,167.95910176037188,,142.5,142.95910176037188,,,142.5,1.8149999999999995
11.858,148.5,0.578,51.3,1.837,0.578,178.5,51.3,,,,,151.39091529851166,,15.366412486378417,152.5522,,,167.9186124863784,,142.5,142.9186124863784,,,142.5,1.837
11.869,148.4,0.58,51.3,1.847999999999999,0.58,178.4,51.3,,,,,151.3205404796021,,15.371794460310177,152.502,,,167.8737944603102,,142.4,142.8737944603102,,,142.4,1.847999999999999
11.896,148.4,0.582,51.3,1.875,0.582,178.4,51.3,,,,,151.24953669353863,,15.377320933273168,152.4518,,,167.82912093327315,,142.4,142.82912093327315,,,142.4,1.875
11.922,148.4,0.583,51.3,1.901,0.583,178.4,51.3,,,,,151.213798038158,,15.380138329757616,152.4267,,,167.80683832975762,,142.4,142.80683832975762,,,142.4,1.901
11.943,148.4,0.586,51.3,1.9219999999999988,0.586,178.4,51.3,,,,,151.1056307042226,,15.388807027215353,152.3514,,,167.74020702721538,,142.4,142.74020702721538,,,142.4,1.9219999999999988
11.962,148.4,0.586,51.3,1.940999999999999,0.586,178.4,51.3,,,,,151.1056307042226,,15.388807027215353,152.3514,,,167.74020702721538,,142.4,142.74020702721538,,,142.4,1.940999999999999
11.98,148.3,0.588,51.3,1.959,0.588,178.3,51.3,,,,,151.03272274310635,,15.394766470679587,152.3012,,,167.6959664706796,,142.3,142.6959664706796,,,142.3,1.959
11.995,148.3,0.588,51.2,1.9739999999999984,0.588,178.3,51.2,,,,,151.02361021420413,,15.376963092296496,152.3012,,,167.6781630922965,,142.3,142.6781630922965,,,142.3,1.9739999999999984
12.015,148.3,0.589,51.2,1.994,0.589,178.3,51.2,,,,,150.98687537847974,,15.380018691923132,152.2761,,,167.65611869192315,,142.3,142.65611869192315,,,142.3,1.994
12.044,148.3,0.591,51.2,2.023,0.591,178.3,51.2,,,,,150.912923604347,,15.3862379022725,152.2259,,,167.6121379022725,,142.3,142.6121379022725,,,142.3,2.023
12.062,148.3,0.592,51.2,2.0409999999999986,0.592,178.3,51.2,,,,,150.8757059462056,,15.38940149021112,152.20080000000002,,,167.59020149021114,,142.3,142.59020149021114,,,142.3,2.0409999999999986
12.08,148.3,0.592,51.3,2.0589999999999997,0.592,178.3,51.3,,,,,150.88498249329817,,15.407117697591982,152.20080000000002,,,167.607917697592,,142.3,142.607917697592,,,142.3,2.0589999999999997
12.101,148.3,0.592,51.2,2.08,0.592,178.3,51.2,,,,,150.8757059462056,,15.38940149021112,152.20080000000002,,,167.59020149021114,,142.3,142.59020149021114,,,142.3,2.08
12.123,148.3,0.593,51.2,2.1019999999999985,0.593,178.3,51.2,,,,,150.83832662752565,,15.392601051332614,152.1757,,,167.5683010513326,,142.3,142.5683010513326,,,142.3,2.1019999999999985
