time,length,pressure,force,time_contraction,pressure_contraction,length_contraction,force_contraction,time_extension,pressure_extension,length_extension,force_extension,estimated_contraction_length,estimated_extension_length,Estimated_Stretched_Length_Contraction,Estimated_Unstretched_Length_Contraction,Estimated_Stretched_Length_Extension,Estimated_Unstretched_Length_Extension,Estimated_Length_Contraction,Estimated_Length_Extension,real_length_contraction,Real_Estimated_Length_Contraction,real_length_extension,Real_Estimated_Length_Extension,real_length,time_elapsed
10.015,155.2,0.428,46.5,0.0,0.428,182.2,46.5,,,,,156.13658553343143,,13.895712147536953,149.14608,,,163.04179214753697,,155.2,153.04179214753697,,,155.2,0.0
10.034,155.2,0.428,46.6,0.0190000000000001,0.428,182.2,46.6,,,,,156.14188661523403,,13.921982771856714,149.14608,,,163.06806277185672,,155.2,153.06806277185672,,,155.2,0.0190000000000001
10.059,155.2,0.432,46.6,0.0439999999999987,0.432,182.2,46.6,,,,,156.0638883089535,,13.910584391046418,148.99952,,,162.91010439104642,,155.2,152.91010439104642,,,155.2,0.0439999999999987
10.079,155.1,0.433,46.9,0.064,0.433,182.1,46.9,,,,,156.06041423153547,,13.98618040307511,148.96288,,,162.94906040307512,,155.1,152.94906040307512,,,155.1,0.064
10.099,155.1,0.435,47.5,0.0839999999999996,0.435,182.1,47.5,,,,,156.05349731589737,,14.136760466037554,148.8896,,,163.02636046603754,,155.1,153.02636046603754,,,155.1,0.0839999999999996
10.116,155.1,0.438,48.1,0.100999999999999,0.438,182.1,48.1,,,,,156.02665619753762,,14.283435903537228,148.77968,,,163.06311590353724,,155.1,153.06311590353724,,,155.1,0.100999999999999
10.137,155.1,0.44,48.6,0.1219999999999998,0.44,182.1,48.6,,,,,156.01420937224003,,14.406462928717403,148.7064,,,163.1128629287174,,155.1,153.1128629287174,,,155.1,0.1219999999999998
10.146,155.0,0.443,49.2,0.1310000000000002,0.443,182.0,49.2,,,,,155.9870849215977,,14.551302391408676,148.59648,,,163.1477823914087,,155.0,153.1477823914087,,,155.0,0.1310000000000002
10.176,154.8,0.445,49.6,0.1609999999999996,0.445,181.8,49.6,,,,,155.96888765549377,,14.647289362116835,148.5232,,,163.17048936211683,,154.8,153.17048936211683,,,154.8,0.1609999999999996
10.193,154.6,0.449,49.7,0.177999999999999,0.449,181.6,49.7,,,,,155.89187870110456,,14.659619517227938,148.37664,,,163.03625951722796,,154.6,153.03625951722796,,,154.6,0.177999999999999
10.218,154.4,0.45,49.8,0.2029999999999994,0.45,181.4,49.8,,,,,155.87670316932198,,14.681812989219026,148.34,,,163.02181298921903,,154.4,153.02181298921903,,,154.4,0.2029999999999994
10.232,154.2,0.456,49.5,0.2169999999999987,0.456,181.2,49.5,,,,,155.7302029775552,,14.586395847594824,148.12016,,,162.7065558475948,,154.2,152.7065558475948,,,154.2,0.2169999999999987
10.257,153.9,0.46,49.2,0.2419999999999991,0.46,180.9,49.2,,,,,155.62303680249286,,14.498310663328505,147.9736,,,162.47191066332852,,153.9,152.47191066332852,,,153.9,0.2419999999999991
10.277,153.7,0.461,49.6,0.2619999999999987,0.461,180.7,49.6,,,,,155.6252242158224,,14.59627503704906,147.93696,,,162.53323503704905,,153.7,152.53323503704905,,,153.7,0.2619999999999987
10.297,153.4,0.465,49.5,0.282,0.465,180.4,49.5,,,,,155.52769062576235,,14.559110569007203,147.7904,,,162.3495105690072,,153.4,152.3495105690072,,,153.4,0.282
10.317,153.2,0.468,48.9,0.3019999999999996,0.468,180.2,48.9,,,,,155.41904731232543,,14.39986055369119,147.68048,,,162.08034055369117,,153.2,152.08034055369117,,,153.2,0.3019999999999996
10.338,152.9,0.473,49.1,0.3229999999999986,0.473,179.9,49.1,,,,,155.3119654130055,,14.43629422047091,147.49728,,,161.9335742204709,,152.9,151.9335742204709,,,152.9,0.3229999999999986
10.357,152.7,0.475,49.5,0.3419999999999987,0.475,179.7,49.5,,,,,155.28974957512185,,14.530529476818865,147.424,,,161.95452947681886,,152.7,151.95452947681886,,,152.7,0.3419999999999987
10.378,152.5,0.478,49.3,0.3629999999999995,0.478,179.5,49.3,,,,,155.20206861967608,,14.472678029225165,147.31408,,,161.78675802922515,,152.5,151.78675802922515,,,152.5,0.3629999999999995
10.394,152.3,0.483,49.1,0.3789999999999995,0.483,179.3,49.1,,,,,155.0613937135156,,14.410175600775057,147.13088,,,161.54105560077505,,152.3,151.54105560077505,,,152.3,0.3789999999999995
10.407,152.0,0.489,49.3,0.3919999999999994,0.489,179.0,49.3,,,,,154.9185810220671,,14.44458083827434,146.91104,,,161.35562083827435,,152.0,151.35562083827435,,,152.0,0.3919999999999994
10.434,151.8,0.493,49.5,0.4189999999999987,0.493,178.8,49.5,,,,,154.8258237597024,,14.483874160817994,146.76448,,,161.248354160818,,151.8,151.248354160818,,,151.8,0.4189999999999987
10.443,151.6,0.495,49.7,0.427999999999999,0.495,178.6,49.7,,,,,154.78617711361787,,14.527872699067926,146.6912,,,161.21907269906794,,151.6,151.21907269906794,,,151.6,0.427999999999999
10.476,151.3,0.5,49.5,0.4610000000000003,0.5,178.3,49.5,,,,,154.63259568033547,,14.467449952652121,146.508,,,160.97544995265213,,151.3,150.97544995265213,,,151.3,0.4610000000000003
10.498,151.1,0.506,49.5,0.4829999999999987,0.506,178.1,49.5,,,,,154.46108708979855,,14.454158906538854,146.28816,,,160.74231890653886,,151.1,150.74231890653886,,,151.1,0.4829999999999987
10.518,150.8,0.508,49.8,0.5030000000000001,0.508,177.8,49.8,,,,,154.42642485767126,,14.522140109484729,146.21488,,,160.73702010948472,,150.8,150.73702010948472,,,150.8,0.5030000000000001
10.539,150.6,0.511,49.6,0.5239999999999991,0.511,177.6,49.6,,,,,154.32198257646905,,14.467668156394064,146.10496,,,160.57262815639407,,150.6,150.57262815639407,,,150.6,0.5239999999999991
10.554,150.3,0.517,49.2,0.5389999999999997,0.517,177.3,49.2,,,,,154.10731528755358,,14.36000388680665,145.88512,,,160.24512388680665,,150.3,150.24512388680665,,,150.3,0.5389999999999997
10.573,150.1,0.521,49.3,0.5579999999999998,0.521,177.1,49.3,,,,,153.99098921275225,,14.376567677993934,145.73856,,,160.11512767799394,,150.1,150.11512767799394,,,150.1,0.5579999999999998
10.589,149.9,0.526,49.8,0.5739999999999998,0.526,176.9,49.8,,,,,153.8748759598819,,14.486216599673753,145.55536,,,160.04157659967376,,149.9,150.04157659967376,,,149.9,0.5739999999999998
10.616,149.6,0.53,49.5,0.6009999999999991,0.53,176.6,49.5,,,,,153.7188190726922,,14.408459657595666,145.4088,,,159.81725965759568,,149.6,149.81725965759568,,,149.6,0.6009999999999991
10.638,149.4,0.536,49.5,0.6229999999999993,0.536,176.4,49.5,,,,,153.51872784735502,,14.39894606222756,145.18896,,,159.58790606222757,,149.4,149.58790606222757,,,149.4,0.6229999999999993
10.655,149.2,0.539,50.0,0.6399999999999988,0.539,176.2,50.0,,,,,153.4624324991471,,14.511231934652299,145.07904,,,159.5902719346523,,149.2,149.5902719346523,,,149.2,0.6399999999999988
10.679,148.9,0.544,49.8,0.6639999999999997,0.544,175.9,49.8,,,,,153.2708872771244,,14.457216884994244,144.89584,,,159.35305688499423,,148.9,149.35305688499423,,,148.9,0.6639999999999997
10.699,148.7,0.552,49.5,0.6839999999999993,0.552,175.7,49.5,,,,,152.95558438203895,,14.377414973360253,144.60272,,,158.98013497336026,,148.7,148.98013497336026,,,148.7,0.6839999999999993
10.718,148.4,0.556,49.9,0.7029999999999994,0.556,175.4,49.9,,,,,152.84780439699674,,14.464786534213706,144.45616,,,158.92094653421373,,148.4,148.92094653421373,,,148.4,0.7029999999999994
10.739,148.2,0.559,49.9,0.7240000000000002,0.559,175.2,49.9,,,,,152.7357807718944,,14.461375600480538,144.34624,,,158.80761560048055,,148.2,148.80761560048055,,,148.2,0.7240000000000002
10.756,148.0,0.566,49.3,0.7409999999999997,0.566,175.0,49.3,,,,,152.40552330734226,,14.317683696518547,144.08976,,,158.40744369651856,,148.0,148.40744369651856,,,148.0,0.7409999999999997
10.769,147.8,0.571,49.4,0.7539999999999996,0.571,174.8,49.4,,,,,152.21832794047086,,14.336587175719703,143.90656,,,158.2431471757197,,147.8,148.2431471757197,,,147.8,0.7539999999999996
10.796,147.5,0.575,49.8,0.7809999999999988,0.575,174.5,49.8,,,,,152.10044273364974,,14.424103486502979,143.76,,,158.18410348650298,,147.5,148.18410348650298,,,147.5,0.7809999999999988
10.812,147.3,0.581,49.5,0.7969999999999988,0.581,174.3,49.5,,,,,151.82048683184024,,14.352975451784351,143.54016000000001,,,157.89313545178436,,147.3,147.89313545178436,,,147.3,0.7969999999999988
10.831,147.1,0.586,49.2,0.815999999999999,0.586,174.1,49.2,,,,,151.57489674131173,,14.283682977603146,143.35696000000002,,,157.64064297760316,,147.1,147.64064297760316,,,147.1,0.815999999999999
10.857,146.9,0.591,49.4,0.8419999999999987,0.591,173.9,49.4,,,,,151.3816475975169,,14.326789664121943,143.17376000000002,,,157.50054966412196,,146.9,147.50054966412196,,,146.9,0.8419999999999987
10.879,146.7,0.594,49.7,0.863999999999999,0.594,173.7,49.7,,,,,151.28516677520696,,14.392536015243827,143.06384,,,157.45637601524382,,146.7,147.45637601524382,,,146.7,0.863999999999999
10.898,146.5,0.599,49.5,0.8829999999999991,0.599,173.5,49.5,,,,,151.03794948846442,,14.347506589924707,142.88064,,,157.2281465899247,,146.5,147.2281465899247,,,146.5,0.8829999999999991
10.915,146.3,0.604,49.3,0.8999999999999986,0.604,173.3,49.3,,,,,150.7847971695301,,14.30344843653541,142.69744,,,157.0008884365354,,146.3,147.0008884365354,,,146.3,0.8999999999999986
10.936,146.1,0.608,49.3,0.9209999999999994,0.608,173.1,49.3,,,,,150.59812878987742,,14.303903395989796,142.55088,,,156.8547833959898,,146.1,146.8547833959898,,,146.1,0.9209999999999994
10.957,145.9,0.614,49.2,0.9420000000000002,0.614,172.9,49.2,,,,,150.2992531182523,,14.283549234628897,142.33104,,,156.6145892346289,,145.9,146.6145892346289,,,145.9,0.9420000000000002
10.977,145.7,0.62,49.3,0.9619999999999996,0.62,172.7,49.3,,,,,150.01901764114422,,14.307536283226886,142.1112,,,156.41873628322688,,145.7,146.41873628322688,,,145.7,0.9619999999999996
10.998,145.5,0.622,49.6,0.9829999999999988,0.622,172.5,49.6,,,,,149.95967759497597,,14.373115918027283,142.03792,,,156.4110359180273,,145.5,146.4110359180273,,,145.5,0.9829999999999988
11.005,145.3,0.626,49.3,0.9900000000000002,0.626,172.3,49.3,,,,,149.71854414026134,,14.310635518530148,141.89136,,,156.20199551853014,,145.3,146.20199551853014,,,145.3,0.9900000000000002
11.038,145.2,0.633,48.9,1.0229999999999997,0.633,172.2,48.9,,,,,149.30262878047662,,14.229898907397475,141.63488,,,155.8647789073975,,145.2,145.8647789073975,,,145.2,1.0229999999999997
11.059,145.0,0.637,49.3,1.0439999999999987,0.637,172.0,49.3,,,,,149.14838204163445,,14.318553366681162,141.48832,,,155.80687336668115,,145.0,145.80687336668115,,,145.0,1.0439999999999987
11.076,144.8,0.642,49.5,1.061,0.642,171.8,49.5,,,,,148.90976671493274,,14.365374691305675,141.30512,,,155.67049469130566,,144.8,145.67049469130566,,,144.8,1.061
11.093,144.7,0.648,49.1,1.0779999999999994,0.648,171.7,49.1,,,,,148.52307356923285,,14.287317531910267,141.08528,,,155.3725975319103,,144.7,145.3725975319103,,,144.7,1.0779999999999994
11.117,144.5,0.654,49.3,1.1020000000000003,0.654,171.5,49.3,,,,,148.2169470316957,,14.336520587925005,140.86544,,,155.20196058792502,,144.5,145.20196058792502,,,144.5,1.1020000000000003
11.136,144.3,0.658,49.5,1.1209999999999989,0.658,171.3,49.5,,,,,148.0195236016368,,14.383359352777942,140.71888,,,155.10223935277796,,144.3,145.10223935277796,,,144.3,1.1209999999999989
11.156,144.2,0.663,49.4,1.141,0.663,171.2,49.4,,,,,147.71420651958982,,14.369568728438812,140.53568,,,154.90524872843883,,144.2,144.90524872843883,,,144.2,1.141
11.178,144.0,0.669,49.3,1.1630000000000005,0.669,171.0,49.3,,,,,147.34291104323586,,14.358196242055428,140.31584,,,154.67403624205542,,144.0,144.67403624205542,,,144.0,1.1630000000000005
11.198,143.9,0.673,49.4,1.1829999999999998,0.673,170.9,49.4,,,,,147.1176948939772,,14.385397996605738,140.16928000000001,,,154.55467799660576,,143.9,144.55467799660576,,,143.9,1.1829999999999998
11.212,143.7,0.676,49.5,1.1969999999999992,0.676,170.7,49.5,,,,,146.9508446104599,,14.411043260326142,140.05936,,,154.47040326032615,,143.7,144.47040326032615,,,143.7,1.1969999999999992
11.228,143.6,0.68,49.4,1.2129999999999992,0.68,170.6,49.4,,,,,146.68672880948253,,14.397934411139376,139.9128,,,154.31073441113938,,143.6,144.31073441113938,,,143.6,1.2129999999999992
11.255,143.4,0.685,49.1,1.2400000000000002,0.685,170.4,49.1,,,,,146.32078399709533,,14.346833718584428,139.7296,,,154.07643371858444,,143.4,144.07643371858444,,,143.4,1.2400000000000002
11.276,143.3,0.69,49.2,1.2609999999999992,0.69,170.3,49.2,,,,,146.01679132849227,,14.377619190431611,139.5464,,,153.9240191904316,,143.3,143.9240191904316,,,143.3,1.2609999999999992
11.294,143.2,0.693,49.4,1.279,0.693,170.2,49.4,,,,,145.856507856826,,14.424408187913928,139.43648000000002,,,153.86088818791396,,143.2,143.86088818791396,,,143.2,1.279
11.308,143.1,0.699,49.5,1.2929999999999993,0.699,170.1,49.5,,,,,145.47797000251285,,14.457982559799442,139.21664,,,153.67462255979945,,143.1,143.67462255979945,,,143.1,1.2929999999999993
11.337,142.9,0.701,49.7,1.3219999999999992,0.701,169.9,49.7,,,,,145.38013945606863,,14.50246303674304,139.14336,,,153.64582303674305,,142.9,143.64582303674305,,,142.9,1.3219999999999992
11.357,142.8,0.706,49.5,1.3419999999999987,0.706,169.8,49.5,,,,,145.00507522863438,,14.474856285686105,138.96016,,,153.43501628568612,,142.8,143.43501628568612,,,142.8,1.3419999999999987
11.374,142.7,0.712,49.3,1.359,0.712,169.7,49.3,,,,,144.55276860627544,,14.45088566428179,138.74032,,,153.1912056642818,,142.7,143.1912056642818,,,142.7,1.359
11.395,142.6,0.715,49.5,1.379999999999999,0.715,169.6,49.5,,,,,144.37977578732892,,14.498330807761805,138.6304,,,153.12873080776183,,142.6,143.12873080776183,,,142.6,1.379999999999999
11.415,142.5,0.72,49.5,1.3999999999999986,0.72,169.5,49.5,,,,,144.02387576705638,,14.512238395692373,138.4472,,,152.9594383956924,,142.5,142.9594383956924,,,142.5,1.3999999999999986
11.434,142.4,0.723,49.6,1.4189999999999987,0.723,169.4,49.6,,,,,143.82690771082736,,14.540338676166423,138.33728,,,152.8776186761664,,142.4,142.8776186761664,,,142.4,1.4189999999999987
11.452,142.3,0.726,49.7,1.4369999999999994,0.726,169.3,49.7,,,,,143.62810331260602,,14.56852876977492,138.22736,,,152.79588876977493,,142.3,142.79588876977493,,,142.3,1.4369999999999994
11.472,142.2,0.729,49.6,1.456999999999999,0.729,169.2,49.6,,,,,143.38765658569037,,14.558172326663803,138.11744,,,152.67561232666378,,142.2,142.67561232666378,,,142.2,1.456999999999999
11.498,142.1,0.735,49.5,1.4829999999999988,0.735,169.1,49.5,,,,,142.91907270919654,,14.557678015981187,137.8976,,,152.4552780159812,,142.1,142.4552780159812,,,142.1,1.4829999999999988
11.516,142.0,0.739,49.5,1.5009999999999994,0.739,169.0,49.5,,,,,142.61492801838176,,14.570737532777397,137.75104,,,152.3217775327774,,142.0,142.3217775327774,,,142.0,1.5009999999999994
11.532,141.9,0.741,49.7,1.5169999999999997,0.741,168.9,49.7,,,,,142.50284022345568,,14.615607298323269,137.67776,,,152.2933672983233,,141.9,142.2933672983233,,,141.9,1.5169999999999997
11.556,141.8,0.745,49.7,1.5409999999999986,0.745,168.8,49.7,,,,,142.1931511090459,,14.629104966422943,137.5312,,,152.16030496642296,,141.8,142.16030496642296,,,141.8,1.5409999999999986
11.575,141.7,0.748,49.6,1.5599999999999987,0.748,168.7,49.6,,,,,141.93695493841875,,14.620537961117922,137.42128,,,152.0418179611179,,141.7,142.0418179611179,,,141.7,1.5599999999999987
11.595,141.6,0.751,49.6,1.58,0.751,168.6,49.6,,,,,141.6994632610471,,14.631204202134418,137.31136,,,151.94256420213443,,141.6,141.94256420213443,,,141.6,1.58
11.615,141.6,0.753,49.7,1.5999999999999996,0.753,168.6,49.7,,,,,141.5614362954416,,14.65729218019273,137.23808,,,151.89537218019274,,141.6,141.89537218019274,,,141.6,1.5999999999999996
11.636,141.5,0.757,49.6,1.6209999999999989,0.757,168.5,49.6,,,,,141.21747106312404,,14.653206809044981,137.09152,,,151.74472680904498,,141.5,141.74472680904498,,,141.5,1.6209999999999989
11.656,141.4,0.761,49.6,1.641,0.761,168.4,49.6,,,,,140.89091381588676,,14.66837152639273,136.94496,,,151.61333152639273,,141.4,141.61333152639273,,,141.4,1.641
11.676,141.3,0.763,49.7,1.6609999999999996,0.763,168.3,49.7,,,,,140.74837702193526,,14.694760622622788,136.87168,,,151.5664406226228,,141.3,141.5664406226228,,,141.3,1.6609999999999996
11.698,141.3,0.765,49.6,1.6829999999999998,0.765,168.3,49.6,,,,,140.56014107245574,,14.683933192951537,136.79840000000002,,,151.48233319295156,,141.3,141.48233319295156,,,141.3,1.6829999999999998
11.703,141.2,0.768,49.5,1.6879999999999988,0.768,168.2,49.5,,,,,140.28656736489708,,14.677290008341304,136.68848,,,151.36577000834131,,141.2,141.36577000834131,,,141.2,1.6879999999999988
11.735,141.2,0.77,49.7,1.7199999999999989,0.77,168.2,49.7,,,,,140.16354125924164,,14.722465075164655,136.61520000000002,,,151.33766507516467,,141.2,141.33766507516467,,,141.2,1.7199999999999989
11.754,141.1,0.773,49.8,1.738999999999999,0.773,168.1,49.8,,,,,139.93193367461413,,14.753159801018398,136.50528,,,151.2584398010184,,141.1,141.2584398010184,,,141.1,1.738999999999999
11.776,141.1,0.775,49.8,1.7609999999999992,0.775,168.1,49.8,,,,,139.7609785256698,,14.761408567605866,136.43200000000002,,,151.19340856760587,,141.1,141.19340856760587,,,141.1,1.7609999999999992
11.789,141.0,0.776,49.8,1.7739999999999991,0.776,168.0,49.8,,,,,139.67509729836843,,14.76557014007666,136.39536,,,151.16093014007666,,141.0,141.16093014007666,,,141.0,1.7739999999999991
11.816,141.0,0.779,49.8,1.8010000000000002,0.779,168.0,49.8,,,,,139.41583382951055,,14.77820357347626,136.28544,,,151.06364357347624,,141.0,141.06364357347624,,,141.0,1.8010000000000002
11.837,140.9,0.781,49.9,1.8219999999999992,0.781,167.9,49.9,,,,,139.26524939696958,,14.805030094295958,136.21216,,,151.01719009429598,,140.9,141.01719009429598,,,140.9,1.8219999999999992
11.853,140.9,0.783,49.9,1.8379999999999992,0.783,167.9,49.9,,,,,139.0901166758571,,14.813636720180934,136.13888,,,150.95251672018094,,140.9,140.95251672018094,,,140.9,1.8379999999999992
11.873,140.8,0.785,49.8,1.8579999999999988,0.785,167.8,49.8,,,,,138.889979033226,,14.804139326861996,136.0656,,,150.86973932686197,,140.8,140.86973932686197,,,140.8,1.8579999999999988
11.895,140.8,0.786,49.7,1.879999999999999,0.786,167.8,49.7,,,,,138.77736729956,,14.790350648502452,136.02896,,,150.81931064850247,,140.8,140.81931064850247,,,140.8,1.879999999999999
11.915,140.7,0.789,49.7,1.8999999999999984,0.789,167.7,49.7,,,,,138.50970051270724,,14.803784811768171,135.91904,,,150.72282481176816,,140.7,140.72282481176816,,,140.7,1.8999999999999984
11.936,140.7,0.791,49.7,1.9209999999999996,0.791,167.7,49.7,,,,,138.32987963473946,,14.812864564434346,135.84576,,,150.65862456443435,,140.7,140.65862456443435,,,140.7,1.9209999999999996
11.956,140.6,0.791,49.7,1.940999999999999,0.791,167.6,49.7,,,,,138.32987963473946,,14.812864564434346,135.84576,,,150.65862456443435,,140.6,140.65862456443435,,,140.6,1.940999999999999
11.961,140.6,0.791,49.6,1.946,0.791,167.6,49.6,,,,,138.30545916083963,,14.794748754327621,135.84576,,,150.64050875432764,,140.6,140.64050875432764,,,140.6,1.946
11.996,140.6,0.793,49.4,1.981,0.793,167.6,49.4,,,,,138.07515815306274,,14.767768481958894,135.77248,,,150.54024848195888,,140.6,140.54024848195888,,,140.6,1.981
12.013,140.6,0.793,49.5,1.9979999999999996,0.793,167.6,49.5,,,,,138.09978080336398,,14.785874315744211,135.77248,,,150.55835431574423,,140.6,140.55835431574423,,,140.6,1.9979999999999996
12.034,140.5,0.795,49.6,2.019,0.795,167.5,49.6,,,,,137.94219033768243,,14.813281784780878,135.6992,,,150.51248178478087,,140.5,140.51248178478087,,,140.5,2.019
12.054,140.5,0.796,49.6,2.039,0.796,167.5,49.6,,,,,137.8506788781092,,14.81797677945959,135.66256,,,150.4805367794596,,140.5,140.4805367794596,,,140.5,2.039
12.075,140.5,0.797,49.5,2.0599999999999987,0.797,167.5,49.5,,,,,137.73398081841924,,14.804681815420698,135.62592,,,150.43060181542072,,140.5,140.43060181542072,,,140.5,2.0599999999999987
12.095,140.5,0.798,49.5,2.08,0.798,167.5,49.5,,,,,137.64183408550707,,14.809445383575488,135.58928,,,150.39872538357548,,140.5,140.39872538357548,,,140.5,2.08
