time,length,pressure,force,time_contraction,pressure_contraction,length_contraction,force_contraction,time_extension,pressure_extension,length_extension,force_extension,estimated_contraction_length,estimated_extension_length,Estimated_Stretched_Length_Contraction,Estimated_Unstretched_Length_Contraction,Estimated_Stretched_Length_Extension,Estimated_Unstretched_Length_Extension,Estimated_Length_Contraction,Estimated_Length_Extension,real_length_contraction,Real_Estimated_Length_Contraction,real_length_extension,Real_Estimated_Length_Extension,real_length,time_elapsed
10.033,159.5,0.22,46.3,0.0,0.22,189.5,46.3,,,,,156.61083969346413,,14.3182108733877,161.538,,,175.8562108733877,,153.5,150.8562108733877,,,153.5,0.0
10.054,159.5,0.223,46.6,0.0210000000000007,0.223,189.5,46.6,,,,,156.6063392913665,,14.384896693237653,161.4627,,,175.84759669323768,,153.5,150.84759669323768,,,153.5,0.0210000000000007
10.077,159.5,0.224,47.0,0.0440000000000004,0.224,189.5,47.0,,,,,156.60735508199738,,14.492213955252865,161.4376,,,175.92981395525288,,153.5,150.92981395525288,,,153.5,0.0440000000000004
10.097,159.5,0.227,47.4,0.064,0.227,189.5,47.4,,,,,156.60353715666534,,14.586024981522131,161.3623,,,175.94832498152215,,153.5,150.94832498152215,,,153.5,0.064
10.117,159.5,0.229,48.0,0.0840000000000014,0.229,189.5,48.0,,,,,156.60387660829693,,14.741961869356517,161.31210000000002,,,176.05406186935653,,153.5,151.05406186935653,,,153.5,0.0840000000000014
10.134,159.5,0.234,48.7,0.1010000000000008,0.234,189.5,48.7,,,,,156.5974351832437,,14.904083145740769,161.1866,,,176.09068314574077,,153.5,151.09068314574077,,,153.5,0.1010000000000008
10.155,159.5,0.235,49.3,0.1219999999999998,0.235,189.5,49.3,,,,,156.60041140796773,,15.064322406230087,161.1615,,,176.22582240623007,,153.5,151.22582240623007,,,153.5,0.1219999999999998
10.173,159.4,0.238,49.9,0.1400000000000005,0.238,189.4,49.9,,,,,156.59813672740884,,15.209294118219029,161.0862,,,176.295494118219,,153.4,151.295494118219,,,153.4,0.1400000000000005
10.191,159.3,0.24,50.5,0.1580000000000012,0.24,189.3,50.5,,,,,156.59854535492218,,15.360281433862019,161.036,,,176.39628143386201,,153.3,151.39628143386201,,,153.3,0.1580000000000012
10.216,159.1,0.242,50.9,0.1829999999999998,0.242,189.1,50.9,,,,,156.5969960029221,,15.455284966582903,160.9858,,,176.4410849665829,,153.1,151.4410849665829,,,153.1,0.1829999999999998
10.237,158.9,0.246,51.1,0.2040000000000006,0.246,188.9,51.1,,,,,156.5876425142111,,15.47976051021016,160.8854,,,176.36516051021016,,152.9,151.36516051021016,,,152.9,0.2040000000000006
10.257,158.6,0.25,51.0,0.2240000000000002,0.25,188.6,51.0,,,,,156.57464385097404,,15.422518655083385,160.785,,,176.2075186550834,,152.6,151.2075186550834,,,152.6,0.2240000000000002
10.272,158.3,0.253,50.8,0.2390000000000007,0.253,188.3,50.8,,,,,156.56311310601922,,15.346175561952895,160.7097,,,176.0558755619529,,152.3,151.0558755619529,,,152.3,0.2390000000000007
10.294,158.0,0.258,50.6,0.261000000000001,0.258,188.0,50.6,,,,,156.5443728800721,,15.256098442237825,160.5842,,,175.84029844223784,,152.0,150.84029844223784,,,152.0,0.261000000000001
10.314,157.7,0.261,50.4,0.2810000000000006,0.261,187.7,50.4,,,,,156.53164644685663,,15.181178856184708,160.5089,,,175.69007885618473,,151.7,150.69007885618473,,,151.7,0.2810000000000006
10.33,157.5,0.263,50.2,0.2970000000000006,0.263,187.5,50.2,,,,,156.52212550926967,,15.11371310550927,160.4587,,,175.57241310550927,,151.5,150.57241310550927,,,151.5,0.2970000000000006
10.356,157.3,0.268,49.9,0.3230000000000004,0.268,187.3,49.9,,,,,156.49962403929425,,14.999682549116686,160.3332,,,175.3328825491167,,151.3,150.3328825491167,,,151.3,0.3230000000000004
10.376,157.1,0.273,50.1,0.3429999999999999,0.273,187.1,50.1,,,,,156.48189110631523,,15.019314090099218,160.2077,,,175.2270140900992,,151.1,150.2270140900992,,,151.1,0.3429999999999999
10.394,157.0,0.275,50.5,0.3610000000000006,0.275,187.0,50.5,,,,,156.47854512978284,,15.111359558431799,160.1575,,,175.26885955843179,,151.0,150.26885955843179,,,151.0,0.3610000000000006
10.417,156.8,0.279,50.8,0.3840000000000003,0.279,186.8,50.8,,,,,156.46524570525568,,15.162976423723961,160.0571,,,175.22007642372395,,150.8,150.22007642372395,,,150.8,0.3840000000000003
10.434,156.6,0.284,50.9,0.4009999999999998,0.284,186.6,50.9,,,,,156.44413715735132,,15.15532729285228,159.9316,,,175.0869272928523,,150.6,150.0869272928523,,,150.6,0.4009999999999998
10.452,156.4,0.289,51.1,0.4190000000000005,0.289,186.4,51.1,,,,,156.423253516342,,15.173649815907908,159.80610000000001,,,174.97974981590792,,150.4,149.97974981590792,,,150.4,0.4190000000000005
10.47,156.2,0.293,51.3,0.4370000000000011,0.293,186.2,51.3,,,,,156.40633020818362,,15.198438987677607,159.7057,,,174.9041389876776,,150.2,149.9041389876776,,,150.2,0.4370000000000011
10.491,155.9,0.297,51.5,0.4580000000000002,0.297,185.9,51.5,,,,,156.38871938665713,,15.223007421793412,159.6053,,,174.8283074217934,,149.9,149.8283074217934,,,149.9,0.4580000000000002
10.515,155.6,0.301,51.2,0.4820000000000011,0.301,185.6,51.2,,,,,156.36274247485736,,15.12060283202412,159.5049,,,174.62550283202413,,149.6,149.62550283202413,,,149.6,0.4820000000000011
10.535,155.3,0.305,50.7,0.5020000000000007,0.305,185.3,50.7,,,,,156.33237800897447,,14.96859817920628,159.4045,,,174.3730981792063,,149.3,149.3730981792063,,,149.3,0.5020000000000007
10.556,155.1,0.308,50.3,0.5229999999999997,0.308,185.1,50.3,,,,,156.30822895789953,,14.849123014071811,159.32920000000001,,,174.17832301407182,,149.1,149.17832301407182,,,149.1,0.5229999999999997
10.576,155.0,0.313,50.3,0.543000000000001,0.313,185.0,50.3,,,,,156.27738956125344,,14.819350011973185,159.2037,,,174.02305001197317,,149.0,149.02305001197317,,,149.0,0.543000000000001
10.597,154.8,0.321,50.7,0.5640000000000001,0.321,184.8,50.7,,,,,156.23203036819228,,14.872225459377814,159.0029,,,173.8751254593778,,148.8,148.8751254593778,,,148.8,0.5640000000000001
10.614,154.7,0.324,50.8,0.5810000000000013,0.324,184.7,50.8,,,,,156.21326444578716,,14.879500287954247,158.9276,,,173.80710028795426,,148.7,148.80710028795426,,,148.7,0.5810000000000013
10.632,154.5,0.327,51.1,0.5990000000000002,0.327,184.5,51.1,,,,,156.19776442191002,,14.93599734885157,158.8523,,,173.7882973488516,,148.5,148.7882973488516,,,148.5,0.5990000000000002
10.651,154.3,0.333,51.2,0.6180000000000003,0.333,184.3,51.2,,,,,156.1558757262036,,14.925771726609865,158.7017,,,173.62747172660985,,148.3,148.62747172660985,,,148.3,0.6180000000000003
10.674,154.1,0.338,51.2,0.641,0.338,184.1,51.2,,,,,156.11752028694625,,14.897368576124723,158.5762,,,173.47356857612473,,148.1,148.47356857612473,,,148.1,0.641
10.696,153.9,0.341,51.4,0.6630000000000003,0.341,183.9,51.4,,,,,156.09785473524315,,14.928915991422963,158.5009,,,173.42981599142297,,147.9,148.42981599142297,,,147.9,0.6630000000000003
10.716,153.8,0.348,51.4,0.6829999999999998,0.348,183.8,51.4,,,,,156.03991213143416,,14.890155222102617,158.3252,,,173.2153552221026,,147.8,148.2153552221026,,,147.8,0.6829999999999998
10.729,153.6,0.352,51.4,0.6959999999999997,0.352,183.6,51.4,,,,,156.00518963609758,,14.868499846275995,158.22480000000002,,,173.093299846276,,147.6,148.093299846276,,,147.6,0.6959999999999997
10.753,153.3,0.357,51.4,0.7200000000000006,0.357,183.3,51.4,,,,,155.96009425065898,,14.841936433471178,158.0993,,,172.94123643347118,,147.3,147.94123643347118,,,147.3,0.7200000000000006
10.769,153.1,0.362,51.3,0.7360000000000007,0.362,183.1,51.3,,,,,155.9106261427163,,14.792366009151047,157.9738,,,172.76616600915105,,147.1,147.76616600915105,,,147.1,0.7360000000000007
10.794,152.9,0.366,51.0,0.761000000000001,0.366,182.9,51.0,,,,,155.8639335516264,,14.701604190099566,157.8734,,,172.57500419009958,,146.9,147.57500419009958,,,146.9,0.761000000000001
10.811,152.7,0.372,50.8,0.7780000000000005,0.372,182.7,50.8,,,,,155.7972224370842,,14.625587128954647,157.7228,,,172.34838712895464,,146.7,147.34838712895464,,,146.7,0.7780000000000005
10.834,152.6,0.377,50.7,0.8010000000000002,0.377,182.6,50.7,,,,,155.74082922992244,,14.578802852691172,157.5973,,,172.17610285269117,,146.6,147.17610285269117,,,146.6,0.8010000000000002
10.848,152.5,0.382,50.9,0.8150000000000013,0.382,182.5,50.9,,,,,155.690682556991,,14.602218371573853,157.4718,,,172.07401837157386,,146.5,147.07401837157386,,,146.5,0.8150000000000013
10.875,152.4,0.387,51.1,0.8420000000000005,0.387,182.4,51.1,,,,,155.63876524346486,,14.625618026761273,157.3463,,,171.97191802676127,,146.4,146.97191802676127,,,146.4,0.8420000000000005
10.888,152.3,0.391,51.5,0.8550000000000004,0.391,182.3,51.5,,,,,155.6031733563253,,14.699068972017335,157.2459,,,171.94496897201734,,146.3,146.94496897201734,,,146.3,0.8550000000000004
10.916,152.1,0.396,51.7,0.8830000000000009,0.396,182.1,51.7,,,,,155.54822226599396,,14.72208447168546,157.1204,,,171.84248447168545,,146.1,146.84248447168545,,,146.1,0.8830000000000009
10.932,152.0,0.402,51.8,0.8990000000000009,0.402,182.0,51.8,,,,,155.47530625455,,14.718278381675622,156.9698,,,171.6880783816756,,146.0,146.6880783816756,,,146.0,0.8990000000000009
10.953,151.8,0.406,51.8,0.92,0.406,181.8,51.8,,,,,155.42277606947013,,14.701118022168759,156.8694,,,171.57051802216878,,145.8,146.57051802216878,,,145.8,0.92
10.974,151.6,0.411,51.5,0.9410000000000008,0.411,181.6,51.5,,,,,155.34466534484577,,14.613372936883351,156.7439,,,171.35727293688336,,145.6,146.35727293688336,,,145.6,0.9410000000000008
10.994,151.4,0.417,51.1,0.9610000000000004,0.417,181.4,51.1,,,,,155.24533969725024,,14.500709906466982,156.5933,,,171.094009906467,,145.4,146.094009906467,,,145.4,0.9610000000000004
11.014,151.3,0.422,50.9,0.981,0.422,181.3,50.9,,,,,155.1639171500235,,14.43764003275997,156.4678,,,170.90544003275997,,145.3,145.90544003275997,,,145.3,0.981
11.035,151.2,0.427,51.0,1.002000000000001,0.427,181.2,51.0,,,,,155.09106598361595,,14.441605520203654,156.3423,,,170.78390552020366,,145.2,145.78390552020366,,,145.2,1.002000000000001
11.055,151.1,0.432,51.1,1.0220000000000002,0.432,181.1,51.1,,,,,155.01589451209864,,14.445888177829215,156.2168,,,170.6626881778292,,145.1,145.6626881778292,,,145.1,1.0220000000000002
11.072,151.1,0.437,51.4,1.0389999999999997,0.437,181.1,51.4,,,,,154.9465493153122,,14.493929405021186,156.0913,,,170.58522940502118,,145.1,145.58522940502118,,,145.1,1.0389999999999997
11.093,151.0,0.442,51.7,1.0600000000000005,0.442,181.0,51.7,,,,,154.8752772648863,,14.541708729483105,155.9658,,,170.5075087294831,,145.0,145.5075087294831,,,145.0,1.0600000000000005
11.111,150.8,0.446,52.0,1.0780000000000012,0.446,180.8,52.0,,,,,154.81942589857152,,14.592592100973977,155.8654,,,170.45799210097397,,144.8,145.45799210097397,,,144.8,1.0780000000000012
11.133,150.7,0.45,52.0,1.0999999999999996,0.45,180.7,52.0,,,,,154.7492754789937,,14.579304520984739,155.765,,,170.34430452098474,,144.7,145.34430452098474,,,144.7,1.0999999999999996
11.15,150.5,0.456,51.8,1.1170000000000009,0.456,180.5,51.8,,,,,154.63163312011864,,14.517680455827474,155.6144,,,170.13208045582746,,144.5,145.13208045582746,,,144.5,1.1170000000000009
11.174,150.4,0.461,51.5,1.141,0.461,180.4,51.5,,,,,154.52370626772458,,14.439124373216785,155.4889,,,169.92802437321677,,144.4,144.92802437321677,,,144.4,1.141
11.194,150.3,0.465,51.3,1.1610000000000014,0.465,180.3,51.3,,,,,154.43660511199172,,14.385491714382647,155.3885,,,169.77399171438265,,144.3,144.77399171438265,,,144.3,1.1610000000000014
11.215,150.2,0.471,51.0,1.1820000000000004,0.471,180.2,51.0,,,,,154.30156202676326,,14.30624150210958,155.2379,,,169.54414150210957,,144.2,144.54414150210957,,,144.2,1.1820000000000004
11.227,150.1,0.476,51.0,1.1940000000000008,0.476,180.1,51.0,,,,,154.19792487398774,,14.293640074470842,155.1124,,,169.40604007447084,,144.1,144.40604007447084,,,144.1,1.1940000000000008
11.253,150.1,0.479,51.2,1.2200000000000006,0.479,180.1,51.2,,,,,154.14484836108002,,14.32802923430648,155.0371,,,169.3651292343065,,144.1,144.3651292343065,,,144.1,1.2200000000000006
11.272,150.0,0.483,51.5,1.2390000000000008,0.483,180.0,51.5,,,,,154.07468456452204,,14.380598637394428,154.9367,,,169.31729863739443,,144.0,144.31729863739443,,,144.0,1.2390000000000008
11.293,149.9,0.488,51.7,1.2599999999999998,0.488,179.9,51.7,,,,,153.97554191301182,,14.409974719174835,154.8112,,,169.22117471917485,,143.9,144.22117471917485,,,143.9,1.2599999999999998
11.314,149.8,0.495,51.8,1.2810000000000006,0.495,179.8,51.8,,,,,153.8222533000811,,14.414592716206924,154.6355,,,169.05009271620693,,143.8,144.05009271620693,,,143.8,1.2810000000000006
11.333,149.7,0.499,51.8,1.3000000000000007,0.499,179.7,51.8,,,,,153.72875203292358,,14.406002649317221,154.5351,,,168.94110264931723,,143.7,143.94110264931723,,,143.7,1.3000000000000007
11.354,149.6,0.501,51.6,1.3209999999999995,0.501,179.6,51.6,,,,,153.66942562577768,,14.361281434693309,154.4849,,,168.8461814346933,,143.6,143.8461814346933,,,143.6,1.3209999999999995
11.373,149.5,0.505,51.5,1.34,0.505,179.5,51.5,,,,,153.56654998830643,,14.333176908638068,154.3845,,,168.71767690863808,,143.5,143.71767690863808,,,143.5,1.34
11.395,149.5,0.51,51.3,1.362,0.51,179.5,51.3,,,,,153.42997925820276,,14.283637437634596,154.25900000000001,,,168.5426374376346,,143.5,143.5426374376346,,,143.5,1.362
11.413,149.4,0.514,51.3,1.3800000000000008,0.514,179.4,51.3,,,,,153.32804237448772,,14.276825833633474,154.1586,,,168.43542583363347,,143.4,143.43542583363347,,,143.4,1.3800000000000008
11.432,149.3,0.519,51.2,1.399000000000001,0.519,179.3,51.2,,,,,153.19107907974416,,14.24882091719457,154.0331,,,168.28192091719455,,143.3,143.28192091719455,,,143.3,1.399000000000001
11.453,149.3,0.522,51.3,1.42,0.522,179.3,51.3,,,,,153.11773802676493,,14.264301597802177,153.9578,,,168.22210159780218,,143.3,143.22210159780218,,,143.3,1.42
11.474,149.2,0.527,51.4,1.4410000000000007,0.527,179.2,51.4,,,,,152.98867861755693,,14.277050829273957,153.8323,,,168.10935082927395,,143.2,143.10935082927395,,,143.2,1.4410000000000007
11.494,149.1,0.531,51.3,1.4610000000000003,0.531,179.1,51.3,,,,,152.8707041897352,,14.25196369875301,153.7319,,,167.983863698753,,143.1,142.983863698753,,,143.1,1.4610000000000003
11.515,149.1,0.534,51.3,1.482000000000001,0.534,179.1,51.3,,,,,152.7858595826281,,14.248263348803006,153.6566,,,167.904863348803,,143.1,142.904863348803,,,143.1,1.482000000000001
11.533,149.0,0.537,51.2,1.5,0.537,179.0,51.2,,,,,152.69258674296165,,14.225109489968144,153.5813,,,167.80640948996813,,143.0,142.80640948996813,,,143.0,1.5
11.542,149.0,0.541,51.2,1.5090000000000003,0.541,179.0,51.2,,,,,152.5756423738877,,14.220846883159549,153.4809,,,167.70174688315953,,143.0,142.70174688315953,,,143.0,1.5090000000000003
11.571,148.9,0.543,51.3,1.5380000000000005,0.543,178.9,51.3,,,,,152.52368974748572,,14.238399377338991,153.4307,,,167.669099377339,,142.9,142.669099377339,,,142.9,1.5380000000000005
11.592,148.9,0.548,51.4,1.559000000000001,0.548,178.9,51.4,,,,,152.3805700307148,,14.253156138989857,153.3052,,,167.55835613898986,,142.9,142.55835613898986,,,142.9,1.559000000000001
11.612,148.8,0.552,51.4,1.5790000000000006,0.552,178.8,51.4,,,,,152.2575605004298,,14.249751777059824,153.2048,,,167.45455177705983,,142.8,142.45455177705983,,,142.8,1.5790000000000006
11.633,148.8,0.554,51.4,1.5999999999999996,0.554,178.8,51.4,,,,,152.19517478370528,,14.248187256369429,153.1546,,,167.4027872563694,,142.8,142.4027872563694,,,142.8,1.5999999999999996
11.654,148.7,0.558,51.5,1.6210000000000004,0.558,178.7,51.5,,,,,152.07654028560978,,14.264565067131612,153.0542,,,167.3187650671316,,142.7,142.3187650671316,,,142.7,1.6210000000000004
11.674,148.7,0.56,51.5,1.641,0.56,178.7,51.5,,,,,152.01244815837106,,14.263239147928195,153.004,,,167.2672391479282,,142.7,142.2672391479282,,,142.7,1.641
11.691,148.6,0.563,51.4,1.6580000000000013,0.563,178.6,51.4,,,,,151.90708214093945,,14.242282685275883,152.9287,,,167.17098268527587,,142.6,142.17098268527587,,,142.6,1.6580000000000013
11.712,148.6,0.566,51.3,1.6790000000000005,0.566,178.6,51.3,,,,,151.80011712191995,,14.221624185301268,152.8534,,,167.07502418530126,,142.6,142.07502418530126,,,142.6,1.6790000000000005
11.731,148.6,0.567,51.4,1.6980000000000004,0.567,178.6,51.4,,,,,151.7751299442366,,14.240255033880072,152.8283,,,167.06855503388007,,142.6,142.06855503388007,,,142.6,1.6980000000000004
11.752,148.6,0.571,51.5,1.7190000000000012,0.571,178.6,51.5,,,,,151.64915043877872,,14.257589044811695,152.7279,,,166.9854890448117,,142.6,141.9854890448117,,,142.6,1.7190000000000012
11.773,148.5,0.574,51.5,1.7400000000000002,0.574,178.5,51.5,,,,,151.5468595470557,,14.256530514886178,152.6526,,,166.9091305148862,,142.5,141.9091305148862,,,142.5,1.7400000000000002
11.79,148.5,0.576,51.5,1.7569999999999997,0.576,178.5,51.5,,,,,151.47789180959364,,14.255939688427032,152.6024,,,166.858339688427,,142.5,141.858339688427,,,142.5,1.7569999999999997
11.814,148.4,0.578,51.5,1.7810000000000006,0.578,178.4,51.5,,,,,151.40830166566036,,14.255440750255923,152.5522,,,166.80764075025593,,142.4,141.80764075025593,,,142.4,1.7810000000000006
11.831,148.4,0.58,51.4,1.798,0.58,178.4,51.4,,,,,151.3293188287238,,14.236200942242425,152.502,,,166.73820094224243,,142.4,141.73820094224243,,,142.4,1.798
11.852,148.4,0.582,51.3,1.8190000000000008,0.582,178.4,51.3,,,,,151.24953669353863,,14.21710618621878,152.4518,,,166.66890618621878,,142.4,141.66890618621878,,,142.4,1.8190000000000008
11.874,148.3,0.585,51.3,1.841000000000001,0.585,178.3,51.3,,,,,151.14184540336643,,14.216912481263353,152.3765,,,166.59341248126336,,142.3,141.59341248126336,,,142.3,1.841000000000001
11.891,148.3,0.586,51.3,1.8580000000000003,0.586,178.3,51.3,,,,,151.1056307042226,,14.216893770505111,152.3514,,,166.56829377050514,,142.3,141.56829377050514,,,142.3,1.8580000000000003
11.912,148.3,0.588,51.3,1.8790000000000011,0.588,178.3,51.3,,,,,151.03272274310635,,14.216925136631291,152.3012,,,166.51812513663128,,142.3,141.51812513663128,,,142.3,1.8790000000000011
11.924,148.3,0.589,51.4,1.891,0.589,178.3,51.4,,,,,151.00517086433953,,14.23566627301961,152.2761,,,166.51176627301962,,142.3,141.51176627301962,,,142.3,1.891
11.952,148.3,0.591,51.4,1.9190000000000005,0.591,178.3,51.4,,,,,150.9313830373596,,14.235799912477093,152.2259,,,166.4616999124771,,142.3,141.4616999124771,,,142.3,1.9190000000000005
11.972,148.2,0.593,51.4,1.939,0.593,178.2,51.4,,,,,150.85695081051014,,14.236025354566348,152.1757,,,166.41172535456636,,142.2,141.41172535456636,,,142.2,1.939
11.991,148.2,0.593,51.3,1.958,0.593,178.2,51.3,,,,,150.84764443004673,,14.21740482212221,152.1757,,,166.3931048221222,,142.2,141.3931048221222,,,142.2,1.958
12.012,148.2,0.594,51.3,1.979000000000001,0.594,178.2,51.3,,,,,150.81014444674256,,14.21756954974921,152.1506,,,166.3681695497492,,142.2,141.3681695497492,,,142.2,1.979000000000001
12.031,148.2,0.594,51.3,1.998000000000001,0.594,178.2,51.3,,,,,150.81014444674256,,14.21756954974921,152.1506,,,166.3681695497492,,142.2,141.3681695497492,,,142.2,1.998000000000001
12.05,148.2,0.596,51.2,2.017000000000001,0.596,178.2,51.2,,,,,150.72521510958924,,14.199381639105452,152.1004,,,166.29978163910545,,142.2,141.29978163910545,,,142.2,2.017000000000001
12.071,148.2,0.598,51.2,2.0380000000000003,0.598,178.2,51.2,,,,,150.64899253071974,,14.19990662679719,152.0502,,,166.2501066267972,,142.2,141.2501066267972,,,142.2,2.0380000000000003
12.092,148.1,0.599,51.2,2.059000000000001,0.599,178.1,51.2,,,,,150.61063569161198,,14.200203487651237,152.0251,,,166.22530348765125,,142.1,141.22530348765125,,,142.1,2.059000000000001
12.113,148.1,0.599,51.2,2.08,0.599,178.1,51.2,,,,,150.61063569161198,,14.200203487651237,152.0251,,,166.22530348765125,,142.1,141.22530348765125,,,142.1,2.08
12.133,148.1,0.6,51.2,2.1,0.6,178.1,51.2,,,,,150.57211467290023,,14.200523260137334,152.0,,,166.20052326013735,,142.1,141.20052326013735,,,142.1,2.1
12.148,148.1,0.599,51.2,,,,,2.115,0.599,178.1,51.2,,149.7506763795721,,,14.200203487651235,152.0251,,166.22530348765125,,,142.1,141.22530348765125,142.1,2.115
