time,length,pressure,force,time_contraction,pressure_contraction,length_contraction,force_contraction,time_extension,pressure_extension,length_extension,force_extension,estimated_contraction_length,estimated_extension_length,Estimated_Stretched_Length_Contraction,Estimated_Unstretched_Length_Contraction,Estimated_Stretched_Length_Extension,Estimated_Unstretched_Length_Extension,Estimated_Length_Contraction,Estimated_Length_Extension,real_length_contraction,Real_Estimated_Length_Contraction,real_length_extension,Real_Estimated_Length_Extension,real_length,time_elapsed
10.038,159.8,0.214,46.4,0.0,0.214,192.8,46.4,,,,,157.19037990327266,,14.649018902045492,161.6886,,,176.3376189020455,,153.3,151.3376189020455,,,153.3,0.0
10.061,159.8,0.217,46.9,0.0229999999999996,0.217,192.8,46.9,,,,,157.18768409549702,,14.7734470494164,161.6133,,,176.3867470494164,,153.3,151.3867470494164,,,153.3,0.0229999999999996
10.081,159.8,0.219,47.3,0.0429999999999992,0.219,192.8,47.3,,,,,157.1864637694766,,14.874876964166507,161.5631,,,176.4379769641665,,153.3,151.4379769641665,,,153.3,0.0429999999999992
10.101,159.7,0.223,47.8,0.0630000000000006,0.223,192.7,47.8,,,,,157.18095404898312,,14.990397012951483,161.4627,,,176.4530970129515,,153.2,151.4530970129515,,,153.2,0.0630000000000006
10.121,159.6,0.224,48.5,0.0830000000000001,0.224,192.6,48.5,,,,,157.18529855956177,,15.182344443162675,161.4376,,,176.61994444316267,,153.1,151.61994444316267,,,153.1,0.0830000000000001
10.142,159.4,0.228,49.0,0.1039999999999992,0.228,192.4,49.0,,,,,157.17957997048458,,15.294998759568806,161.3372,,,176.6321987595688,,152.9,151.6321987595688,,,152.9,0.1039999999999992
10.155,159.2,0.23,49.1,0.1169999999999991,0.23,192.2,49.1,,,,,157.1750105025618,,15.308715966613303,161.287,,,176.5957159666133,,152.7,151.5957159666133,,,152.7,0.1169999999999991
10.179,158.9,0.233,49.1,0.141,0.233,191.9,49.1,,,,,157.16627381916638,,15.28731040800003,161.2117,,,176.49901040800003,,152.4,151.49901040800003,,,152.4,0.141
10.195,158.7,0.236,48.7,0.157,0.236,191.7,48.7,,,,,157.15270474843592,,15.154886685995201,161.1364,,,176.2912866859952,,152.2,151.2912866859952,,,152.2,0.157
10.221,158.4,0.238,48.5,0.1829999999999998,0.238,191.4,48.5,,,,,157.14406409502618,,15.08579343481207,161.0862,,,176.17199343481207,,151.9,151.17199343481207,,,151.9,0.1829999999999998
10.238,158.1,0.242,48.5,0.1999999999999993,0.242,191.1,48.5,,,,,157.13065793749766,,15.059461713764879,160.9858,,,176.0452617137649,,151.6,151.0452617137649,,,151.6,0.1999999999999993
10.261,157.9,0.245,48.1,0.2229999999999989,0.245,190.9,48.1,,,,,157.11532340629626,,14.930009736561825,160.9105,,,175.84050973656184,,151.4,150.84050973656184,,,151.4,0.2229999999999989
10.281,157.7,0.25,48.5,0.2430000000000003,0.25,190.7,48.5,,,,,157.1015240213225,,15.008480248622918,160.785,,,175.79348024862293,,151.2,150.79348024862293,,,151.2,0.2430000000000003
10.297,157.5,0.253,48.1,0.2590000000000003,0.253,190.5,48.1,,,,,157.08466076828654,,14.881130165947997,160.7097,,,175.590830165948,,151.0,150.590830165948,,,151.0,0.2590000000000003
10.319,157.3,0.257,48.8,0.2810000000000006,0.257,190.3,48.8,,,,,157.07732682711327,,15.046756605683623,160.6093,,,175.6560566056836,,150.8,150.6560566056836,,,150.8,0.2810000000000006
10.334,157.1,0.262,48.7,0.2959999999999994,0.262,190.1,48.7,,,,,157.0544121796135,,14.989887658386998,160.4838,,,175.473687658387,,150.6,150.473687658387,,,150.6,0.2959999999999994
10.356,156.8,0.263,49.1,0.3179999999999996,0.263,189.8,49.1,,,,,157.05547088493327,,15.0910489606152,160.4587,,,175.5497489606152,,150.3,150.5497489606152,,,150.3,0.3179999999999996
10.38,156.6,0.267,48.9,0.3420000000000005,0.267,189.6,48.9,,,,,157.03430252157858,,15.014148190354332,160.3583,,,175.37244819035433,,150.1,150.37244819035433,,,150.1,0.3420000000000005
10.398,156.4,0.269,49.1,0.3599999999999994,0.269,189.4,49.1,,,,,157.02767353210405,,15.055700592165913,160.3081,,,175.36380059216592,,149.9,150.36380059216592,,,149.9,0.3599999999999994
10.416,156.1,0.274,48.8,0.3780000000000001,0.274,189.1,48.8,,,,,156.99838594134465,,14.948218226089791,160.1826,,,175.1308182260898,,149.6,150.1308182260898,,,149.6,0.3780000000000001
10.44,155.9,0.28,48.9,0.4019999999999992,0.28,188.9,48.9,,,,,156.96810319083022,,14.942058366480964,160.032,,,174.97405836648096,,149.4,149.97405836648096,,,149.4,0.4019999999999992
10.455,155.7,0.286,48.8,0.4169999999999998,0.286,188.7,48.8,,,,,156.93241150780744,,14.884924664762023,159.8814,,,174.76632466476204,,149.2,149.76632466476204,,,149.2,0.4169999999999998
10.478,155.5,0.29,48.9,0.4399999999999995,0.29,188.5,48.9,,,,,156.91012945747602,,14.890769796656553,159.781,,,174.67176979665655,,149.0,149.67176979665655,,,149.0,0.4399999999999995
10.49,155.3,0.291,48.9,0.4519999999999999,0.291,188.3,48.9,,,,,156.90397845026547,,14.885840745452276,159.7559,,,174.64174074545227,,148.8,149.64174074545227,,,148.8,0.4519999999999999
10.517,155.1,0.295,49.1,0.4789999999999992,0.295,188.1,49.1,,,,,156.88230111733927,,14.917677819563124,159.6555,,,174.5731778195631,,148.6,149.5731778195631,,,148.6,0.4789999999999992
10.533,154.9,0.3,49.2,0.4949999999999992,0.3,187.9,49.2,,,,,156.85121067827558,,14.919374904082261,159.53,,,174.44937490408228,,148.4,149.44937490408228,,,148.4,0.4949999999999992
10.556,154.6,0.305,49.5,0.5179999999999989,0.305,187.6,49.5,,,,,156.82241190667278,,14.97204981206209,159.4045,,,174.3765498120621,,148.1,149.3765498120621,,,148.1,0.5179999999999989
10.58,154.4,0.31,49.6,0.5419999999999998,0.31,187.4,49.6,,,,,156.78827460685275,,14.974538660862507,159.279,,,174.2535386608625,,147.9,149.2535386608625,,,147.9,0.5419999999999998
10.598,154.2,0.313,49.3,0.5600000000000005,0.313,187.2,49.3,,,,,156.75959951394495,,14.88656852804288,159.2037,,,174.09026852804288,,147.7,149.09026852804288,,,147.7,0.5600000000000005
10.614,154.0,0.321,49.1,0.5760000000000005,0.321,187.0,49.1,,,,,156.6915657522904,,14.804435769410338,159.0029,,,173.80733576941034,,147.5,148.80733576941034,,,147.5,0.5760000000000005
10.638,153.9,0.326,49.2,0.5999999999999996,0.326,186.9,49.2,,,,,156.65140917317544,,14.810083246522101,158.8774,,,173.6874832465221,,147.4,148.6874832465221,,,147.4,0.5999999999999996
10.65,153.7,0.329,49.6,0.6120000000000001,0.329,186.7,49.6,,,,,156.6343370963978,,14.896826786377373,158.8021,,,173.69892678637737,,147.2,148.69892678637737,,,147.2,0.6120000000000001
10.678,153.5,0.33,49.5,0.6400000000000006,0.33,186.5,49.5,,,,,156.6231310315065,,14.868729266260761,158.777,,,173.64572926626076,,147.0,148.64572926626076,,,147.0,0.6400000000000006
10.698,153.3,0.335,49.9,0.6600000000000001,0.335,186.3,49.9,,,,,156.5871420961783,,14.947689793143056,158.6515,,,173.59918979314307,,146.8,148.59918979314307,,,146.8,0.6600000000000001
10.716,153.1,0.343,49.9,0.677999999999999,0.343,186.1,49.9,,,,,156.51039936733065,,14.920096696669054,158.4507,,,173.37079669666906,,146.6,148.37079669666906,,,146.6,0.677999999999999
10.731,152.9,0.348,50.0,0.6929999999999996,0.348,185.9,50.0,,,,,156.46235310782404,,14.927858708486147,158.3252,,,173.25305870848615,,146.4,148.25305870848615,,,146.4,0.6929999999999996
10.759,152.7,0.352,49.9,0.7210000000000001,0.352,185.7,49.9,,,,,156.41760521977028,,14.891952240733174,158.22480000000002,,,173.11675224073318,,146.2,148.11675224073318,,,146.2,0.7210000000000001
10.772,152.5,0.357,49.7,0.734,0.357,185.5,49.7,,,,,156.35736166916558,,14.830563431138298,158.0993,,,172.9298634311383,,146.0,147.9298634311383,,,146.0,0.734
10.798,152.4,0.362,49.7,0.7599999999999998,0.362,185.4,49.7,,,,,156.30032447112222,,14.817489036032722,157.9738,,,172.79128903603274,,145.9,147.79128903603274,,,145.9,0.7599999999999998
10.818,152.2,0.366,49.6,0.7799999999999994,0.366,185.2,49.6,,,,,156.25004611834854,,14.784399812272271,157.8734,,,172.6577998122723,,145.7,147.6577998122723,,,145.7,0.7799999999999994
10.831,152.1,0.37,49.8,0.7929999999999993,0.37,185.1,49.8,,,,,156.20736593093022,,14.821722513255807,157.773,,,172.59472251325582,,145.6,147.59472251325582,,,145.6,0.7929999999999993
10.858,152.0,0.376,50.0,0.8200000000000003,0.376,185.0,50.0,,,,,156.13790415547552,,14.854923660841022,157.6224,,,172.47732366084102,,145.5,147.47732366084102,,,145.5,0.8200000000000003
10.88,151.8,0.383,50.2,0.8420000000000005,0.383,184.8,50.2,,,,,156.0519781017956,,14.886898681341087,157.4467,,,172.33359868134107,,145.3,147.33359868134107,,,145.3,0.8420000000000005
10.892,151.7,0.387,50.5,0.8539999999999992,0.387,184.7,50.5,,,,,156.00732824303265,,14.947628137388161,157.3463,,,172.29392813738818,,145.2,147.29392813738818,,,145.2,0.8539999999999992
10.918,151.5,0.391,50.7,0.879999999999999,0.391,184.5,50.7,,,,,155.95807225010176,,14.985735609694247,157.2459,,,172.23163560969425,,145.0,147.23163560969425,,,145.0,0.879999999999999
10.936,151.3,0.396,50.4,0.8979999999999997,0.396,184.3,50.4,,,,,155.8748228698688,,14.910777536231937,157.1204,,,172.03117753623192,,144.8,147.03117753623192,,,144.8,0.8979999999999997
10.955,151.1,0.402,50.2,0.9169999999999998,0.402,184.1,50.2,,,,,155.77659202662628,,14.858549041488251,156.9698,,,171.82834904148825,,144.6,146.82834904148825,,,144.6,0.9169999999999998
10.976,150.9,0.407,50.0,0.9380000000000006,0.407,183.9,50.0,,,,,155.69008688158314,,14.809117317508614,156.8443,,,171.65341731750863,,144.4,146.65341731750863,,,144.4,0.9380000000000006
10.994,150.8,0.412,50.0,0.9559999999999996,0.412,183.8,50.0,,,,,155.6084223776219,,14.805184458715893,156.7188,,,171.5239844587159,,144.3,146.5239844587159,,,144.3,0.9559999999999996
11.018,150.7,0.416,49.9,0.9800000000000004,0.416,183.7,49.9,,,,,155.53700262657108,,14.780789861788309,156.6184,,,171.39918986178833,,144.2,146.39918986178833,,,144.2,0.9800000000000004
11.037,150.6,0.418,49.9,0.9990000000000006,0.418,183.6,49.9,,,,,155.50263218155425,,14.779844440236376,156.5682,,,171.34804444023638,,144.1,146.34804444023638,,,144.1,0.9990000000000006
11.059,150.5,0.424,50.1,1.020999999999999,0.424,183.5,50.1,,,,,155.40543144131945,,14.821402095419268,156.4176,,,171.23900209541927,,144.0,146.23900209541927,,,144.0,1.020999999999999
11.08,150.4,0.432,50.6,1.0419999999999998,0.432,183.4,50.6,,,,,155.2808135230033,,14.9279942481159,156.2168,,,171.14479424811591,,143.9,146.14479424811591,,,143.9,1.0419999999999998
11.1,150.3,0.442,50.7,1.0619999999999994,0.442,183.3,50.7,,,,,155.09240987102896,,14.950488593341296,155.9658,,,170.9162885933413,,143.8,145.9162885933413,,,143.8,1.0619999999999994
11.102,150.2,0.445,50.8,1.064,0.445,183.2,50.8,,,,,155.03703290755448,,14.9726605106397,155.8905,,,170.86316051063972,,143.7,145.86316051063972,,,143.7,1.064
11.135,150.0,0.446,50.7,1.0969999999999995,0.446,183.0,50.7,,,,,155.01190096506053,,14.95201422974989,155.8654,,,170.8174142297499,,143.5,145.8174142297499,,,143.5,1.0969999999999995
11.151,149.8,0.45,50.4,1.1129999999999995,0.45,182.8,50.4,,,,,154.91453764817186,,14.891148503554593,155.765,,,170.6561485035546,,143.3,145.6561485035546,,,143.3,1.1129999999999995
11.178,149.7,0.455,50.1,1.1400000000000006,0.455,182.7,50.1,,,,,154.79290704417798,,14.832233476285898,155.6395,,,170.4717334762859,,143.2,145.4717334762859,,,143.2,1.1400000000000006
11.194,149.6,0.461,49.7,1.1560000000000006,0.461,182.6,49.7,,,,,154.63950149576377,,14.755150089352448,155.4889,,,170.24405008935244,,143.1,145.24405008935244,,,143.1,1.1560000000000006
11.22,149.5,0.464,49.6,1.1820000000000004,0.464,182.5,49.6,,,,,154.56593847016993,,14.738306506623356,155.4136,,,170.15190650662336,,143.0,145.15190650662336,,,143.0,1.1820000000000004
11.24,149.4,0.466,49.6,1.202,0.466,182.4,49.6,,,,,154.5197945003276,,14.741221478464887,155.3634,,,170.1046214784649,,142.9,145.1046214784649,,,142.9,1.202
11.26,149.4,0.475,49.7,1.2219999999999995,0.475,182.4,49.7,,,,,154.3113744054016,,14.776874608229331,155.1375,,,169.9143746082293,,142.9,144.9143746082293,,,142.9,1.2219999999999995
11.277,149.3,0.481,50.0,1.238999999999999,0.481,182.3,50.0,,,,,154.18047381011868,,14.849821881182145,154.9869,,,169.83672188118214,,142.8,144.83672188118214,,,142.8,1.238999999999999
11.297,149.2,0.484,50.0,1.2590000000000003,0.484,182.2,50.0,,,,,154.10462329938895,,14.855976987338085,154.9116,,,169.7675769873381,,142.7,144.7675769873381,,,142.7,1.2590000000000003
11.318,149.1,0.488,49.9,1.2799999999999994,0.488,182.1,49.9,,,,,153.99546891717134,,14.844479543295613,154.8112,,,169.65567954329563,,142.6,144.65567954329563,,,142.6,1.2799999999999994
11.337,149.0,0.492,49.9,1.2989999999999997,0.492,182.0,49.9,,,,,153.8900819084579,,14.853954871047655,154.7108,,,169.56475487104765,,142.5,144.56475487104765,,,142.5,1.2989999999999997
11.359,148.9,0.495,49.7,1.3209999999999995,0.495,181.9,49.7,,,,,153.7969139614005,,14.821215993663255,154.6355,,,169.45671599366327,,142.4,144.45671599366327,,,142.4,1.3209999999999995
11.379,148.8,0.5,49.5,1.3409999999999993,0.5,181.8,49.5,,,,,153.64659258338395,,14.794638099835884,154.51,,,169.30463809983587,,142.3,144.30463809983587,,,142.3,1.3409999999999993
11.398,148.7,0.505,49.4,1.3599999999999994,0.505,181.7,49.4,,,,,153.4987050145496,,14.789402823826519,154.3845,,,169.17390282382652,,142.2,144.17390282382652,,,142.2,1.3599999999999994
11.415,148.6,0.508,49.5,1.376999999999999,0.508,181.6,49.5,,,,,153.41890785859314,,14.818703369758357,154.3092,,,169.12790336975837,,142.1,144.12790336975837,,,142.1,1.376999999999999
11.436,148.6,0.512,49.6,1.3979999999999997,0.512,181.6,49.6,,,,,153.30846282123272,,14.851490512496948,154.2088,,,169.06029051249695,,142.1,144.06029051249695,,,142.1,1.3979999999999997
11.453,148.5,0.516,49.5,1.4149999999999991,0.516,181.5,49.5,,,,,153.18186853073342,,14.845294141931577,154.1084,,,168.95369414193158,,142.0,143.95369414193158,,,142.0,1.4149999999999991
11.477,148.4,0.521,49.5,1.439,0.521,181.4,49.5,,,,,153.02888375059163,,14.863198438595509,153.9829,,,168.8460984385955,,141.9,143.8460984385955,,,141.9,1.439
11.496,148.4,0.523,49.4,1.4580000000000002,0.523,181.4,49.4,,,,,152.95936712689314,,14.85104687838992,153.9327,,,168.78374687838993,,141.9,143.78374687838993,,,141.9,1.4580000000000002
11.514,148.3,0.528,49.4,1.475999999999999,0.528,181.3,49.4,,,,,152.80091283859898,,14.870445192823475,153.8072,,,168.67764519282346,,141.8,143.67764519282346,,,141.8,1.475999999999999
11.538,148.2,0.53,49.5,1.5,0.53,181.2,49.5,,,,,152.743966055225,,14.89792221899826,153.757,,,168.65492221899825,,141.7,143.65492221899825,,,141.7,1.5
11.558,148.2,0.533,49.5,1.5199999999999996,0.533,181.2,49.5,,,,,152.6462282938839,,14.910211020538945,153.6817,,,168.59191102053896,,141.7,143.59191102053896,,,141.7,1.5199999999999996
11.572,148.1,0.539,49.3,1.533999999999999,0.539,181.1,49.3,,,,,152.43089121948898,,14.897345608331078,153.5311,,,168.4284456083311,,141.6,143.4284456083311,,,141.6,1.533999999999999
11.593,148.1,0.542,49.4,1.5549999999999995,0.542,181.1,49.4,,,,,152.3366487357081,,14.93003994723905,153.4558,,,168.38583994723905,,141.6,143.38583994723905,,,141.6,1.5549999999999995
11.617,148.0,0.542,49.4,1.5790000000000006,0.542,181.0,49.4,,,,,152.3366487357081,,14.93003994723905,153.4558,,,168.38583994723905,,141.5,143.38583994723905,,,141.5,1.5790000000000006
11.638,148.0,0.545,49.4,1.5999999999999996,0.545,181.0,49.4,,,,,152.23314574546353,,14.943824287302647,153.3805,,,168.32432428730266,,141.5,143.32432428730266,,,141.5,1.5999999999999996
11.658,147.9,0.553,49.4,1.6199999999999992,0.553,180.9,49.4,,,,,151.95006835369307,,14.982335473516208,153.1797,,,168.1620354735162,,141.4,143.1620354735162,,,141.4,1.6199999999999992
11.677,147.9,0.555,49.5,1.6389999999999991,0.555,180.9,49.5,,,,,151.88607671117637,,15.011269617349962,153.1295,,,168.14076961734997,,141.4,143.14076961734997,,,141.4,1.6389999999999991
11.696,147.8,0.558,49.5,1.6579999999999997,0.558,180.8,49.5,,,,,151.77636991857017,,15.026545172235325,153.0542,,,168.08074517223534,,141.3,143.08074517223534,,,141.3,1.6579999999999997
11.716,147.8,0.561,49.4,1.677999999999999,0.561,180.8,49.4,,,,,151.6565570572759,,15.023399566392188,152.9789,,,168.0022995663922,,141.3,143.0022995663922,,,141.3,1.677999999999999
11.729,147.8,0.563,49.3,1.690999999999999,0.563,180.8,49.3,,,,,151.57282146920988,,15.015306203333068,152.9287,,,167.94400620333306,,141.3,142.94400620333306,,,141.3,1.690999999999999
11.756,147.7,0.565,49.4,1.718,0.565,180.7,49.4,,,,,151.5058290441111,,15.044890077546265,152.8785,,,167.92339007754626,,141.2,142.92339007754626,,,141.2,1.718
11.777,147.7,0.569,49.4,1.738999999999999,0.569,180.7,49.4,,,,,151.3524209739282,,15.067020090290205,152.7781,,,167.8451200902902,,141.2,142.8451200902902,,,141.2,1.738999999999999
11.79,147.7,0.57,49.5,1.751999999999999,0.57,180.7,49.5,,,,,151.3226095006776,,15.09124284434458,152.75300000000001,,,167.8442428443446,,141.2,142.8442428443446,,,141.2,1.751999999999999
11.817,147.6,0.572,49.6,1.779,0.572,180.6,49.6,,,,,151.25366099359678,,15.121113204981976,152.7028,,,167.82391320498198,,141.1,142.82391320498198,,,141.1,1.779
11.835,147.6,0.574,49.6,1.7970000000000006,0.574,180.6,49.6,,,,,151.17507828726636,,15.132573709389172,152.6526,,,167.78517370938917,,141.1,142.78517370938917,,,141.1,1.7970000000000006
11.85,147.6,0.575,49.6,1.8119999999999996,0.575,180.6,49.6,,,,,151.13553109410697,,15.13836398824314,152.6275,,,167.76586398824313,,141.1,142.76586398824313,,,141.1,1.8119999999999996
11.868,147.6,0.577,49.5,1.83,0.577,180.6,49.5,,,,,151.04670010254014,,15.131642463011593,152.5773,,,167.7089424630116,,141.1,142.7089424630116,,,141.1,1.83
11.886,147.6,0.581,49.6,1.847999999999999,0.581,180.6,49.6,,,,,150.89464268776396,,15.173946258535349,152.4769,,,167.65084625853535,,141.1,142.65084625853535,,,141.1,1.847999999999999
11.916,147.5,0.582,49.8,1.878,0.582,180.5,49.8,,,,,150.8727015980249,,15.21658942244234,152.4518,,,167.66838942244232,,141.0,142.66838942244232,,,141.0,1.878
11.935,147.5,0.582,49.8,1.897,0.582,180.5,49.8,,,,,150.8727015980249,,15.21658942244234,152.4518,,,167.66838942244232,,141.0,142.66838942244232,,,141.0,1.897
11.954,147.5,0.585,49.8,1.9160000000000004,0.585,180.5,49.8,,,,,150.74963610968047,,15.234914753987464,152.3765,,,167.61141475398745,,141.0,142.61141475398745,,,141.0,1.9160000000000004
11.975,147.5,0.586,49.8,1.9369999999999996,0.586,180.5,49.8,,,,,150.70826555610734,,15.241103300331156,152.3514,,,167.59250330033117,,141.0,142.59250330033117,,,141.0,1.9369999999999996
11.997,147.5,0.587,49.8,1.959,0.587,180.5,49.8,,,,,150.66672001911007,,15.247331900372703,152.3263,,,167.5736319003727,,141.0,142.5736319003727,,,141.0,1.959
12.017,147.4,0.588,49.8,1.9789999999999992,0.588,180.4,49.8,,,,,150.62499912587177,,15.253600555298558,152.3012,,,167.55480055529856,,140.9,142.55480055529856,,,140.9,1.9789999999999992
12.041,147.4,0.589,49.8,2.003,0.589,180.4,49.8,,,,,150.58310250357545,,15.259909266103556,152.2761,,,167.53600926610358,,140.9,142.53600926610358,,,140.9,2.003
12.054,147.4,0.589,49.8,2.016,0.589,180.4,49.8,,,,,150.58310250357545,,15.259909266103556,152.2761,,,167.53600926610358,,140.9,142.53600926610358,,,140.9,2.016
12.072,147.4,0.591,49.7,2.033999999999999,0.591,180.4,49.7,,,,,150.4890237161134,,15.254560269294167,152.2259,,,167.48046026929416,,140.9,142.48046026929416,,,140.9,2.033999999999999
12.096,147.4,0.591,49.7,2.058,0.591,180.4,49.7,,,,,150.4890237161134,,15.254560269294167,152.2259,,,167.48046026929416,,140.9,142.48046026929416,,,140.9,2.058
12.117,147.4,0.591,49.7,2.0790000000000006,0.591,180.4,49.7,,,,,150.4890237161134,,15.254560269294167,152.2259,,,167.48046026929416,,140.9,142.48046026929416,,,140.9,2.0790000000000006
12.136,147.4,0.591,49.7,2.097999999999999,0.591,180.4,49.7,,,,,150.4890237161134,,15.254560269294167,152.2259,,,167.48046026929416,,140.9,142.48046026929416,,,140.9,2.097999999999999
12.158,147.4,0.592,49.7,2.119999999999999,0.592,180.4,49.7,,,,,150.4465577713813,,15.261010220128886,152.20080000000002,,,167.4618102201289,,140.9,142.4618102201289,,,140.9,2.119999999999999
