time,length,pressure,force,time_contraction,pressure_contraction,length_contraction,force_contraction,time_extension,pressure_extension,length_extension,force_extension,estimated_contraction_length,estimated_extension_length,Estimated_Stretched_Length_Contraction,Estimated_Unstretched_Length_Contraction,Estimated_Stretched_Length_Extension,Estimated_Unstretched_Length_Extension,Estimated_Length_Contraction,Estimated_Length_Extension,real_length_contraction,Real_Estimated_Length_Contraction,real_length_extension,Real_Estimated_Length_Extension,real_length,time_elapsed
10.033,159.5,0.22,46.3,0.0,0.22,189.5,46.3,,,,,156.61083969346413,,15.302475769900363,161.538,,,176.84047576990037,,153.5,151.84047576990037,,,153.5,0.0
10.054,159.5,0.223,46.6,0.0210000000000007,0.223,189.5,46.6,,,,,156.6063392913665,,15.367203171281531,161.4627,,,176.82990317128156,,153.5,151.82990317128156,,,153.5,0.0210000000000007
10.077,159.5,0.224,47.0,0.0440000000000004,0.224,189.5,47.0,,,,,156.60735508199738,,15.477385048431172,161.4376,,,176.91498504843116,,153.5,151.91498504843116,,,153.5,0.0440000000000004
10.097,159.5,0.227,47.4,0.064,0.227,189.5,47.4,,,,,156.60353715666534,,15.570144436972845,161.3623,,,176.93244443697284,,153.5,151.93244443697284,,,153.5,0.064
10.117,159.5,0.229,48.0,0.0840000000000014,0.229,189.5,48.0,,,,,156.60387660829693,,15.728977342606587,161.31210000000002,,,177.0410773426066,,153.5,152.0410773426066,,,153.5,0.0840000000000014
10.134,159.5,0.234,48.7,0.1010000000000008,0.234,189.5,48.7,,,,,156.5974351832437,,15.888949982018053,161.1866,,,177.07554998201806,,153.5,152.07554998201806,,,153.5,0.1010000000000008
10.155,159.5,0.235,49.3,0.1219999999999998,0.235,189.5,49.3,,,,,156.60041140796773,,16.0533849526636,161.1615,,,177.2148849526636,,153.5,152.2148849526636,,,153.5,0.1219999999999998
10.173,159.4,0.238,49.9,0.1400000000000005,0.238,189.4,49.9,,,,,156.59813672740884,,16.198363785024533,161.0862,,,177.28456378502452,,153.4,152.28456378502452,,,153.4,0.1400000000000005
10.191,159.3,0.24,50.5,0.1580000000000012,0.24,189.3,50.5,,,,,156.59854535492218,,16.35106352860195,161.036,,,177.38706352860194,,153.3,152.38706352860194,,,153.3,0.1580000000000012
10.216,159.1,0.242,50.9,0.1829999999999998,0.242,189.1,50.9,,,,,156.5969960029221,,16.44571559457959,160.9858,,,177.4315155945796,,153.1,152.4315155945796,,,153.1,0.1829999999999998
10.237,158.9,0.246,51.1,0.2040000000000006,0.246,188.9,51.1,,,,,156.5876425142111,,16.46395829632914,160.8854,,,177.34935829632914,,152.9,152.34935829632914,,,152.9,0.2040000000000006
10.257,158.6,0.25,51.0,0.2240000000000002,0.25,188.6,51.0,,,,,156.57464385097404,,16.39808849382076,160.785,,,177.18308849382075,,152.6,152.18308849382075,,,152.6,0.2240000000000002
10.272,158.3,0.253,50.8,0.2390000000000007,0.253,188.3,50.8,,,,,156.56311310601922,,16.314471387219264,160.7097,,,177.02417138721927,,152.3,152.02417138721927,,,152.3,0.2390000000000007
10.294,158.0,0.258,50.6,0.261000000000001,0.258,188.0,50.6,,,,,156.5443728800721,,16.213815890063326,160.5842,,,176.79801589006334,,152.0,151.79801589006334,,,152.0,0.261000000000001
10.314,157.7,0.261,50.4,0.2810000000000006,0.261,187.7,50.4,,,,,156.53164644685663,,16.1322108842594,160.5089,,,176.6411108842594,,151.7,151.6411108842594,,,151.7,0.2810000000000006
10.33,157.5,0.263,50.2,0.2970000000000006,0.263,187.5,50.2,,,,,156.52212550926967,,16.059924115432164,160.4587,,,176.51862411543215,,151.5,151.51862411543215,,,151.5,0.2970000000000006
10.356,157.3,0.268,49.9,0.3230000000000004,0.268,187.3,49.9,,,,,156.49962403929425,,15.93576152066491,160.3332,,,176.2689615206649,,151.3,151.2689615206649,,,151.3,0.3230000000000004
10.376,157.1,0.273,50.1,0.3429999999999999,0.273,187.1,50.1,,,,,156.48189110631523,,15.949172810450195,160.2077,,,176.15687281045018,,151.1,151.15687281045018,,,151.1,0.3429999999999999
10.394,157.0,0.275,50.5,0.3610000000000006,0.275,187.0,50.5,,,,,156.47854512978284,,16.040819481061845,160.1575,,,176.19831948106184,,151.0,151.19831948106184,,,151.0,0.3610000000000006
10.417,156.8,0.279,50.8,0.3840000000000003,0.279,186.8,50.8,,,,,156.46524570525568,,16.088392167000205,160.0571,,,176.14549216700019,,150.8,151.14549216700019,,,150.8,0.3840000000000003
10.434,156.6,0.284,50.9,0.4009999999999998,0.284,186.6,50.9,,,,,156.44413715735132,,16.074231594808687,159.9316,,,176.00583159480868,,150.6,151.00583159480868,,,150.6,0.4009999999999998
10.452,156.4,0.289,51.1,0.4190000000000005,0.289,186.4,51.1,,,,,156.423253516342,,16.086858204500146,159.80610000000001,,,175.89295820450016,,150.4,150.89295820450016,,,150.4,0.4190000000000005
10.47,156.2,0.293,51.3,0.4370000000000011,0.293,186.2,51.3,,,,,156.40633020818362,,16.10744460634065,159.7057,,,175.81314460634064,,150.2,150.81314460634064,,,150.2,0.4370000000000011
10.491,155.9,0.297,51.5,0.4580000000000002,0.297,185.9,51.5,,,,,156.38871938665713,,16.127932430765743,159.6053,,,175.73323243076575,,149.9,150.73323243076575,,,149.9,0.4580000000000002
10.515,155.6,0.301,51.2,0.4820000000000011,0.301,185.6,51.2,,,,,156.36274247485736,,16.019498468655904,159.5049,,,175.5243984686559,,149.6,150.5243984686559,,,149.6,0.4820000000000011
10.535,155.3,0.305,50.7,0.5020000000000007,0.305,185.3,50.7,,,,,156.33237800897447,,15.861050206949326,159.4045,,,175.26555020694934,,149.3,150.26555020694934,,,149.3,0.5020000000000007
10.556,155.1,0.308,50.3,0.5229999999999997,0.308,185.1,50.3,,,,,156.30822895789953,,15.736943515467487,159.32920000000001,,,175.0661435154675,,149.1,150.0661435154675,,,149.1,0.5229999999999997
10.576,155.0,0.313,50.3,0.543000000000001,0.313,185.0,50.3,,,,,156.27738956125344,,15.702489351091204,159.2037,,,174.9061893510912,,149.0,149.9061893510912,,,149.0,0.543000000000001
10.597,154.8,0.321,50.7,0.5640000000000001,0.321,184.8,50.7,,,,,156.23203036819228,,15.749879565831629,159.0029,,,174.75277956583164,,148.8,149.75277956583164,,,148.8,0.5640000000000001
10.614,154.7,0.324,50.8,0.5810000000000013,0.324,184.7,50.8,,,,,156.21326444578716,,15.755093176315818,158.9276,,,174.68269317631584,,148.7,149.68269317631584,,,148.7,0.5810000000000013
10.632,154.5,0.327,51.1,0.5990000000000002,0.327,184.5,51.1,,,,,156.19776442191002,,15.810136666393865,158.8523,,,174.6624366663939,,148.5,149.6624366663939,,,148.5,0.5990000000000002
10.651,154.3,0.333,51.2,0.6180000000000003,0.333,184.3,51.2,,,,,156.1558757262036,,15.795980309480846,158.7017,,,174.49768030948084,,148.3,149.49768030948084,,,148.3,0.6180000000000003
10.674,154.1,0.338,51.2,0.641,0.338,184.1,51.2,,,,,156.11752028694625,,15.764511506067791,158.5762,,,174.3407115060678,,148.1,149.3407115060678,,,148.1,0.641
10.696,153.9,0.341,51.4,0.6630000000000003,0.341,183.9,51.4,,,,,156.09785473524315,,15.794731711222504,158.5009,,,174.2956317112225,,147.9,149.2956317112225,,,147.9,0.6630000000000003
10.716,153.8,0.348,51.4,0.6829999999999998,0.348,183.8,51.4,,,,,156.03991213143416,,15.752557679096133,158.3252,,,174.07775767909612,,147.8,149.07775767909612,,,147.8,0.6829999999999998
10.729,153.6,0.352,51.4,0.6959999999999997,0.352,183.6,51.4,,,,,156.00518963609758,,15.729286614991821,158.22480000000002,,,173.95408661499184,,147.6,148.95408661499184,,,147.6,0.6959999999999997
10.753,153.3,0.357,51.4,0.7200000000000006,0.357,183.3,51.4,,,,,155.96009425065898,,15.701045023770316,158.0993,,,173.80034502377032,,147.3,148.80034502377032,,,147.3,0.7200000000000006
10.769,153.1,0.362,51.3,0.7360000000000007,0.362,183.1,51.3,,,,,155.9106261427163,,15.650128151054183,157.9738,,,173.6239281510542,,147.1,148.6239281510542,,,147.1,0.7360000000000007
10.794,152.9,0.366,51.0,0.761000000000001,0.366,182.9,51.0,,,,,155.8639335516264,,15.558530302478257,157.8734,,,173.43193030247826,,146.9,148.43193030247826,,,146.9,0.761000000000001
10.811,152.7,0.372,50.8,0.7780000000000005,0.372,182.7,50.8,,,,,155.7972224370842,,15.481930815470202,157.7228,,,173.2047308154702,,146.7,148.2047308154702,,,146.7,0.7780000000000005
10.834,152.6,0.377,50.7,0.8010000000000002,0.377,182.6,50.7,,,,,155.74082922992244,,15.435148523671293,157.5973,,,173.0324485236713,,146.6,148.0324485236713,,,146.6,0.8010000000000002
10.848,152.5,0.382,50.9,0.8150000000000013,0.382,182.5,50.9,,,,,155.690682556991,,15.458853879800921,157.4718,,,172.93065387980093,,146.5,147.93065387980093,,,146.5,0.8150000000000013
10.875,152.4,0.387,51.1,0.8420000000000005,0.387,182.4,51.1,,,,,155.63876524346486,,15.48280622866429,157.3463,,,172.8291062286643,,146.4,147.8291062286643,,,146.4,0.8420000000000005
10.888,152.3,0.391,51.5,0.8550000000000004,0.391,182.3,51.5,,,,,155.6031733563253,,15.556647202465479,157.2459,,,172.8025472024655,,146.3,147.8025472024655,,,146.3,0.8550000000000004
10.916,152.1,0.396,51.7,0.8830000000000009,0.396,182.1,51.7,,,,,155.54822226599396,,15.580626395325355,157.1204,,,172.70102639532536,,146.1,147.70102639532536,,,146.1,0.8830000000000009
10.932,152.0,0.402,51.8,0.8990000000000009,0.402,182.0,51.8,,,,,155.47530625455,,15.578559343809426,156.9698,,,172.5483593438094,,146.0,147.5483593438094,,,146.0,0.8990000000000009
10.953,151.8,0.406,51.8,0.92,0.406,181.8,51.8,,,,,155.42277606947013,,15.562942766178693,156.8694,,,172.4323427661787,,145.8,147.4323427661787,,,145.8,0.92
10.974,151.6,0.411,51.5,0.9410000000000008,0.411,181.6,51.5,,,,,155.34466534484577,,15.47805944398548,156.7439,,,172.22195944398547,,145.6,147.22195944398547,,,145.6,0.9410000000000008
10.994,151.4,0.417,51.1,0.9610000000000004,0.417,181.4,51.1,,,,,155.24533969725024,,15.36956155255416,156.5933,,,171.96286155255416,,145.4,146.96286155255416,,,145.4,0.9610000000000004
11.014,151.3,0.422,50.9,0.981,0.422,181.3,50.9,,,,,155.1639171500235,,15.310194819844618,156.4678,,,171.77799481984462,,145.3,146.77799481984462,,,145.3,0.981
11.035,151.2,0.427,51.0,1.002000000000001,0.427,181.2,51.0,,,,,155.09106598361595,,15.317536419480469,156.3423,,,171.65983641948046,,145.2,146.65983641948046,,,145.2,1.002000000000001
11.055,151.1,0.432,51.1,1.0220000000000002,0.432,181.1,51.1,,,,,155.01589451209864,,15.32551186013671,156.2168,,,171.54231186013672,,145.1,146.54231186013672,,,145.1,1.0220000000000002
11.072,151.1,0.437,51.4,1.0389999999999997,0.437,181.1,51.4,,,,,154.9465493153122,,15.376944396384596,156.0913,,,171.4682443963846,,145.1,146.4682443963846,,,145.1,1.0389999999999997
11.093,151.0,0.442,51.7,1.0600000000000005,0.442,181.0,51.7,,,,,154.8752772648863,,15.428332889664707,155.9658,,,171.39413288966472,,145.0,146.39413288966472,,,145.0,1.0600000000000005
11.111,150.8,0.446,52.0,1.0780000000000012,0.446,180.8,52.0,,,,,154.81942589857152,,15.482047280440995,155.8654,,,171.34744728044097,,144.8,146.34744728044097,,,144.8,1.0780000000000012
11.133,150.7,0.45,52.0,1.0999999999999996,0.45,180.7,52.0,,,,,154.7492754789937,,15.472838512566078,155.765,,,171.23783851256607,,144.7,146.23783851256607,,,144.7,1.0999999999999996
11.15,150.5,0.456,51.8,1.1170000000000009,0.456,180.5,51.8,,,,,154.63163312011864,,15.418560676812232,155.6144,,,171.03296067681222,,144.5,146.03296067681222,,,144.5,1.1170000000000009
11.174,150.4,0.461,51.5,1.141,0.461,180.4,51.5,,,,,154.52370626772458,,15.347144304109015,155.4889,,,170.836044304109,,144.4,145.836044304109,,,144.4,1.141
11.194,150.3,0.465,51.3,1.1610000000000014,0.465,180.3,51.3,,,,,154.43660511199172,,15.299389797245508,155.3885,,,170.6878897972455,,144.3,145.6878897972455,,,144.3,1.1610000000000014
11.215,150.2,0.471,51.0,1.1820000000000004,0.471,180.2,51.0,,,,,154.30156202676326,,15.229496755416887,155.2379,,,170.46739675541687,,144.2,145.46739675541687,,,144.2,1.1820000000000004
11.227,150.1,0.476,51.0,1.1940000000000008,0.476,180.1,51.0,,,,,154.19792487398774,,15.224020328182343,155.1124,,,170.33642032818236,,144.1,145.33642032818236,,,144.1,1.1940000000000008
11.253,150.1,0.479,51.2,1.2200000000000006,0.479,180.1,51.2,,,,,154.14484836108002,,15.26189054106486,155.0371,,,170.29899054106488,,144.1,145.29899054106488,,,144.1,1.2200000000000006
11.272,150.0,0.483,51.5,1.2390000000000008,0.483,180.0,51.5,,,,,154.07468456452204,,15.319047316451112,154.9367,,,170.2557473164511,,144.0,145.2557473164511,,,144.0,1.2390000000000008
11.293,149.9,0.488,51.7,1.2599999999999998,0.488,179.9,51.7,,,,,153.97554191301182,,15.355244378383915,154.8112,,,170.16644437838391,,143.9,145.16644437838391,,,143.9,1.2599999999999998
11.314,149.8,0.495,51.8,1.2810000000000006,0.495,179.8,51.8,,,,,153.8222533000811,,15.37085934727352,154.6355,,,170.00635934727353,,143.8,145.00635934727353,,,143.8,1.2810000000000006
11.333,149.7,0.499,51.8,1.3000000000000007,0.499,179.7,51.8,,,,,153.72875203292358,,15.369161832527352,154.5351,,,169.90426183252734,,143.7,144.90426183252734,,,143.7,1.3000000000000007
11.354,149.6,0.501,51.6,1.3209999999999995,0.501,179.6,51.6,,,,,153.66942562577768,,15.32912510434845,154.4849,,,169.81402510434845,,143.6,144.81402510434845,,,143.6,1.3209999999999995
11.373,149.5,0.505,51.5,1.34,0.505,179.5,51.5,,,,,153.56654998830643,,15.308871230263557,154.3845,,,169.69337123026355,,143.5,144.69337123026355,,,143.5,1.34
11.395,149.5,0.51,51.3,1.362,0.51,179.5,51.3,,,,,153.42997925820276,,15.269958262303858,154.25900000000001,,,169.52895826230386,,143.5,144.52895826230386,,,143.5,1.362
11.413,149.4,0.514,51.3,1.3800000000000008,0.514,179.4,51.3,,,,,153.32804237448772,,15.270953207313879,154.1586,,,169.4295532073139,,143.4,144.4295532073139,,,143.4,1.3800000000000008
11.432,149.3,0.519,51.2,1.399000000000001,0.519,179.3,51.2,,,,,153.19107907974416,,15.253662005275459,154.0331,,,169.28676200527545,,143.3,144.28676200527545,,,143.3,1.399000000000001
11.453,149.3,0.522,51.3,1.42,0.522,179.3,51.3,,,,,153.11773802676493,,15.274705046347835,153.9578,,,169.23250504634782,,143.3,144.23250504634782,,,143.3,1.42
11.474,149.2,0.527,51.4,1.4410000000000007,0.527,179.2,51.4,,,,,152.98867861755693,,15.297396790139757,153.8323,,,169.12969679013975,,143.2,144.12969679013975,,,143.2,1.4410000000000007
11.494,149.1,0.531,51.3,1.4610000000000003,0.531,179.1,51.3,,,,,152.8707041897352,,15.281729786799863,153.7319,,,169.01362978679987,,143.1,144.01362978679987,,,143.1,1.4610000000000003
11.515,149.1,0.534,51.3,1.482000000000001,0.534,179.1,51.3,,,,,152.7858595826281,,15.284730152843311,153.6566,,,168.9413301528433,,143.1,143.9413301528433,,,143.1,1.482000000000001
11.533,149.0,0.537,51.2,1.5,0.537,179.0,51.2,,,,,152.69258674296165,,15.26911644154705,153.5813,,,168.85041644154705,,143.0,143.85041644154705,,,143.0,1.5
11.542,149.0,0.541,51.2,1.5090000000000003,0.541,179.0,51.2,,,,,152.5756423738877,,15.274158655203784,153.4809,,,168.75505865520378,,143.0,143.75505865520378,,,143.0,1.5090000000000003
11.571,148.9,0.543,51.3,1.5380000000000005,0.543,178.9,51.3,,,,,152.52368974748572,,15.29570448766938,153.4307,,,168.72640448766938,,142.9,143.72640448766938,,,142.9,1.5380000000000005
11.592,148.9,0.548,51.4,1.559000000000001,0.548,178.9,51.4,,,,,152.3805700307148,,15.321752107862016,153.3052,,,168.62695210786202,,142.9,143.62695210786202,,,142.9,1.559000000000001
11.612,148.8,0.552,51.4,1.5790000000000006,0.552,178.8,51.4,,,,,152.2575605004298,,15.328216885835976,153.2048,,,168.533016885836,,142.8,143.533016885836,,,142.8,1.5790000000000006
11.633,148.8,0.554,51.4,1.5999999999999996,0.554,178.8,51.4,,,,,152.19517478370528,,15.331667868961672,153.1546,,,168.48626786896165,,142.8,143.48626786896165,,,142.8,1.5999999999999996
11.654,148.7,0.558,51.5,1.6210000000000004,0.558,178.7,51.5,,,,,152.07654028560978,,15.35743616521313,153.0542,,,168.41163616521314,,142.7,143.41163616521314,,,142.7,1.6210000000000004
11.674,148.7,0.56,51.5,1.641,0.56,178.7,51.5,,,,,152.01244815837106,,15.361279026726164,153.004,,,168.36527902672614,,142.7,143.36527902672614,,,142.7,1.641
11.691,148.6,0.563,51.4,1.6580000000000013,0.563,178.6,51.4,,,,,151.90708214093945,,15.348998362117197,152.9287,,,168.27769836211718,,142.6,143.27769836211718,,,142.6,1.6580000000000013
11.712,148.6,0.566,51.3,1.6790000000000005,0.566,178.6,51.3,,,,,151.80011712191995,,15.337159851140061,152.8534,,,168.19055985114005,,142.6,143.19055985114005,,,142.6,1.6790000000000005
11.731,148.6,0.567,51.4,1.6980000000000004,0.567,178.6,51.4,,,,,151.7751299442366,,15.357645562050852,152.8283,,,168.18594556205088,,142.6,143.18594556205088,,,142.6,1.6980000000000004
11.752,148.6,0.571,51.5,1.7190000000000012,0.571,178.6,51.5,,,,,151.64915043877872,,15.385013260356653,152.7279,,,168.11291326035666,,142.6,143.11291326035666,,,142.6,1.7190000000000012
11.773,148.5,0.574,51.5,1.7400000000000002,0.574,178.5,51.5,,,,,151.5468595470557,,15.392248279153076,152.6526,,,168.0448482791531,,142.5,143.0448482791531,,,142.5,1.7400000000000002
11.79,148.5,0.576,51.5,1.7569999999999997,0.576,178.5,51.5,,,,,151.47789180959364,,15.397252783920688,152.6024,,,167.99965278392068,,142.5,142.99965278392068,,,142.5,1.7569999999999997
11.814,148.4,0.578,51.5,1.7810000000000006,0.578,178.4,51.5,,,,,151.40830166566036,,15.402402114946625,152.5522,,,167.95460211494662,,142.4,142.95460211494662,,,142.4,1.7810000000000006
11.831,148.4,0.58,51.4,1.798,0.58,178.4,51.4,,,,,151.3293188287238,,15.389754537244361,152.502,,,167.89175453724437,,142.4,142.89175453724437,,,142.4,1.798
11.852,148.4,0.582,51.3,1.8190000000000008,0.582,178.4,51.3,,,,,151.24953669353863,,15.377320933273168,152.4518,,,167.82912093327315,,142.4,142.82912093327315,,,142.4,1.8190000000000008
11.874,148.3,0.585,51.3,1.841000000000001,0.585,178.3,51.3,,,,,151.14184540336643,,15.385881387822756,152.3765,,,167.76238138782276,,142.3,142.76238138782276,,,142.3,1.841000000000001
11.891,148.3,0.586,51.3,1.8580000000000003,0.586,178.3,51.3,,,,,151.1056307042226,,15.388807027215353,152.3514,,,167.74020702721538,,142.3,142.74020702721538,,,142.3,1.8580000000000003
11.912,148.3,0.588,51.3,1.8790000000000011,0.588,178.3,51.3,,,,,151.03272274310635,,15.394766470679587,152.3012,,,167.6959664706796,,142.3,142.6959664706796,,,142.3,1.8790000000000011
11.924,148.3,0.589,51.4,1.891,0.589,178.3,51.4,,,,,151.00517086433953,,15.41556341447325,152.2761,,,167.69166341447325,,142.3,142.69166341447325,,,142.3,1.891
11.952,148.3,0.591,51.4,1.9190000000000005,0.591,178.3,51.4,,,,,150.9313830373596,,15.421695474430486,152.2259,,,167.6475954744305,,142.3,142.6475954744305,,,142.3,1.9190000000000005
11.972,148.2,0.593,51.4,1.939,0.593,178.2,51.4,,,,,150.85695081051014,,15.42797160753382,152.1757,,,167.60367160753384,,142.2,142.60367160753384,,,142.2,1.939
11.991,148.2,0.593,51.3,1.958,0.593,178.2,51.3,,,,,150.84764443004673,,15.41029550781958,152.1757,,,167.58599550781958,,142.2,142.58599550781958,,,142.2,1.958
12.012,148.2,0.594,51.3,1.979000000000001,0.594,178.2,51.3,,,,,150.81014444674256,,15.413509296037864,152.1506,,,167.56410929603786,,142.2,142.56410929603786,,,142.2,1.979000000000001
12.031,148.2,0.594,51.3,1.998000000000001,0.594,178.2,51.3,,,,,150.81014444674256,,15.413509296037864,152.1506,,,167.56410929603786,,142.2,142.56410929603786,,,142.2,1.998000000000001
12.05,148.2,0.596,51.2,2.017000000000001,0.596,178.2,51.2,,,,,150.72521510958924,,15.40241545738347,152.1004,,,167.50281545738346,,142.2,142.50281545738346,,,142.2,2.017000000000001
12.071,148.2,0.598,51.2,2.0380000000000003,0.598,178.2,51.2,,,,,150.64899253071974,,15.409138045754865,152.0502,,,167.45933804575486,,142.2,142.45933804575486,,,142.2,2.0380000000000003
12.092,148.1,0.599,51.2,2.059000000000001,0.599,178.1,51.2,,,,,150.61063569161198,,15.412553199417056,152.0251,,,167.43765319941707,,142.1,142.43765319941707,,,142.1,2.059000000000001
12.113,148.1,0.599,51.2,2.08,0.599,178.1,51.2,,,,,150.61063569161198,,15.412553199417056,152.0251,,,167.43765319941707,,142.1,142.43765319941707,,,142.1,2.08
12.133,148.1,0.6,51.2,2.1,0.6,178.1,51.2,,,,,150.57211467290023,,15.416004243269564,152.0,,,167.41600424326955,,142.1,142.41600424326955,,,142.1,2.1
12.148,148.1,0.599,51.2,,,,,2.115,0.599,178.1,51.2,,149.7506763795721,,,12.957588996645951,152.0251,,164.98268899664595,,,142.1,139.98268899664595,142.1,2.115
